nodenumber     x-coordinate     y-coordinate     z-coordinate turb-kinetic-energy         pressure      temperature velocity-magnitude 
         1 -1.238224696E-02 -1.650000007E-03  0.000000000E+00  3.911705757E-03  3.889917463E+01  5.942600152E+02  0.000000000E+00 
         2 -1.231646687E-02 -1.649999949E-03  0.000000000E+00  1.854644639E-03  3.884009858E+01  5.942599823E+02  7.032580529E-01 
         3 -1.223752875E-02 -1.650000008E-03  0.000000000E+00  1.854644694E-03  3.869221435E+01  5.942600000E+02  7.032580738E-01 
         4 -1.214279805E-02 -1.649999951E-03  0.000000000E+00  1.854644639E-03  3.850051775E+01  5.942599823E+02  7.032580529E-01 
         5 -1.202911553E-02 -1.649999951E-03  0.000000000E+00  1.854644639E-03  3.827852118E+01  5.942599823E+02  7.032580529E-01 
         6 -1.189268779E-02 -1.650000001E-03  0.000000000E+00  1.854644694E-03  3.803295353E+01  5.942600000E+02  7.032580738E-01 
         7 -1.172896070E-02 -1.650000028E-03  0.000000000E+00  1.854644722E-03  3.777424404E+01  5.942600089E+02  7.032580843E-01 
         8 -1.153246726E-02 -1.649999968E-03  0.000000000E+00  1.854644666E-03  3.750514933E+01  5.942599911E+02  7.032580634E-01 
         9 -1.129664480E-02 -1.649999999E-03  0.000000000E+00  1.854644694E-03  3.710108312E+01  5.942600000E+02  7.032580738E-01 
        10 -1.104180182E-02 -1.649999952E-03  0.000000000E+00  1.854644639E-03  3.693400555E+01  5.942599823E+02  7.032580529E-01 
        11 -1.040965475E-02 -1.650000037E-03  0.000000000E+00  1.854644749E-03  3.652915820E+01  5.942600177E+02  7.032580948E-01 
        12 -9.727797567E-03 -1.649999974E-03  0.000000000E+00  1.854644666E-03  3.612831526E+01  5.942599911E+02  7.032580634E-01 
        13 -9.549135039E-03 -1.650000016E-03  0.000000000E+00  1.854644722E-03  3.602463777E+01  5.942600089E+02  7.032580843E-01 
        14 -9.257402967E-03 -1.649999996E-03  0.000000000E+00  1.854644694E-03  3.590376595E+01  5.942600000E+02  7.032580738E-01 
        15 -8.707201624E-03 -1.650000004E-03  0.000000000E+00  1.854644694E-03  3.568160530E+01  5.942600000E+02  7.032580738E-01 
        16 -8.327874969E-03 -1.650000002E-03  0.000000000E+00  1.854644694E-03  3.556160975E+01  5.942600000E+02  7.032580738E-01 
        17 -7.868819436E-03 -1.650000009E-03  0.000000000E+00  1.854644694E-03  3.542071373E+01  5.942600000E+02  7.032580738E-01 
        18 -7.309914944E-03 -1.650000005E-03  0.000000000E+00  1.854644694E-03  3.528175303E+01  5.942600000E+02  7.032580738E-01 
        19 -7.033056079E-03 -1.649999952E-03  0.000000000E+00  1.854644639E-03  3.521699081E+01  5.942599823E+02  7.032580529E-01 
        20 -6.774404682E-03 -1.650000049E-03  0.000000000E+00  1.854644749E-03  3.516822044E+01  5.942600177E+02  7.032580948E-01 
        21 -6.203718579E-03 -1.649999993E-03  0.000000000E+00  1.854644694E-03  3.506443121E+01  5.942600000E+02  7.032580738E-01 
        22 -5.764059055E-03 -1.650000057E-03  0.000000000E+00  1.854644749E-03  3.499491153E+01  5.942600177E+02  7.032580948E-01 
        23 -5.369046210E-03 -1.650000008E-03  0.000000000E+00  1.854644694E-03  3.493778516E+01  5.942600000E+02  7.032580738E-01 
        24 -4.703991919E-03 -1.649999998E-03  0.000000000E+00  1.854644694E-03  3.485612204E+01  5.942600000E+02  7.032580738E-01 
        25 -4.513416810E-03 -1.649999963E-03  0.000000000E+00  1.854644653E-03  3.483357687E+01  5.942599867E+02  7.032580581E-01 
        26 -4.409949101E-03 -1.650000002E-03  0.000000000E+00  1.854644694E-03  3.482315035E+01  5.942600000E+02  7.032580738E-01 
        27 -3.648226494E-03 -1.649999989E-03  0.000000000E+00  1.854644694E-03  3.475542415E+01  5.942600000E+02  7.032580738E-01 
        28 -3.090814824E-03 -1.649999990E-03  0.000000000E+00  1.854644694E-03  3.471268681E+01  5.942600000E+02  7.032580738E-01 
        29 -2.790049428E-03 -1.649999975E-03  0.000000000E+00  1.854644666E-03  3.469311958E+01  5.942599911E+02  7.032580634E-01 
        30 -2.326109559E-03 -1.650000046E-03  0.000000000E+00  1.854644749E-03  3.466824922E+01  5.942600177E+02  7.032580948E-01 
        31 -1.966101120E-03 -1.650000005E-03  0.000000000E+00  1.854644694E-03  3.465099104E+01  5.942600000E+02  7.032580738E-01 
        32 -1.649288649E-03 -1.650000004E-03  0.000000000E+00  1.854644694E-03  3.463982952E+01  5.942600000E+02  7.032580738E-01 
        33 -1.153324779E-03 -1.650000049E-03  0.000000000E+00  1.854644749E-03  3.462637217E+01  5.942600177E+02  7.032580948E-01 
        34 -7.314993435E-04 -1.649999992E-03  0.000000000E+00  1.854644694E-03  3.461868085E+01  5.942600000E+02  7.032580738E-01 
        35 -3.521276869E-04 -1.650000043E-03  0.000000000E+00  1.854644749E-03  3.461421831E+01  5.942600177E+02  7.032580948E-01 
        36  2.062356178E-04 -1.650000004E-03  0.000000000E+00  1.854644694E-03  3.461341766E+01  5.942600000E+02  7.032580738E-01 
        37  4.531226353E-04 -1.649999970E-03  0.000000000E+00  1.854644666E-03  3.461424223E+01  5.942599911E+02  7.032580634E-01 
        38  5.816147412E-04 -1.650000031E-03  0.000000000E+00  1.854644722E-03  3.461620885E+01  5.942600089E+02  7.032580843E-01 
        39  1.287381078E-03 -1.649999940E-03  0.000000000E+00  1.854644639E-03  3.463230275E+01  5.942599823E+02  7.032580529E-01 
        40  1.817906072E-03 -1.650000045E-03  0.000000000E+00  1.854644749E-03  3.464940126E+01  5.942600177E+02  7.032580948E-01 
        41  2.171618469E-03 -1.649999958E-03  0.000000000E+00  1.854644639E-03  3.466440190E+01  5.942599823E+02  7.032580529E-01 
        42  2.917015337E-03 -1.650000026E-03  0.000000000E+00  1.854644722E-03  3.470469164E+01  5.942600089E+02  7.032580843E-01 
        43  3.060138752E-03 -1.649999982E-03  0.000000000E+00  1.854644673E-03  3.471297108E+01  5.942599934E+02  7.032580660E-01 
        44  3.122627803E-03 -1.650000012E-03  0.000000000E+00  1.854644708E-03  3.471733396E+01  5.942600044E+02  7.032580791E-01 
        45  3.948750735E-03 -1.649999946E-03  0.000000000E+00  1.854644639E-03  3.478393632E+01  5.942599823E+02  7.032580529E-01 
        46  4.233552192E-03 -1.650000005E-03  0.000000000E+00  1.854644694E-03  3.480870726E+01  5.942600000E+02  7.032580738E-01 
        47  4.833507872E-03 -1.649999945E-03  0.000000000E+00  1.854644639E-03  3.487261065E+01  5.942599823E+02  7.032580529E-01 
        48  5.160210487E-03 -1.649999946E-03  0.000000000E+00  1.854644639E-03  3.491203211E+01  5.942599823E+02  7.032580529E-01 
        49  5.783248106E-03 -1.650000052E-03  0.000000000E+00  1.854644749E-03  3.500116200E+01  5.942600177E+02  7.032580948E-01 
        50  6.035984549E-03 -1.649999976E-03  0.000000000E+00  1.854644666E-03  3.503940571E+01  5.942599911E+02  7.032580634E-01 
        51  6.237400109E-03 -1.650000022E-03  0.000000000E+00  1.854644722E-03  3.507431892E+01  5.942600089E+02  7.032580843E-01 
        52  6.881112835E-03 -1.650000056E-03  0.000000000E+00  1.854644749E-03  3.519116946E+01  5.942600177E+02  7.032580948E-01 
        53  7.573470319E-03 -1.649999997E-03  0.000000000E+00  1.854644694E-03  3.534617444E+01  5.942600000E+02  7.032580738E-01 
        54  7.730792309E-03 -1.650000003E-03  0.000000000E+00  1.854644694E-03  3.538262736E+01  5.942600000E+02  7.032580738E-01 
        55  8.090815089E-03 -1.650000001E-03  0.000000000E+00  1.854644694E-03  3.548881925E+01  5.942600000E+02  7.032580738E-01 
        56  8.598449542E-03 -1.650000003E-03  0.000000000E+00  1.854644694E-03  3.564219744E+01  5.942600000E+02  7.032580738E-01 
        57  8.805739513E-03 -1.650000003E-03  0.000000000E+00  1.854644694E-03  3.572420206E+01  5.942600000E+02  7.032580738E-01 
        58  9.485623847E-03 -1.649999997E-03  0.000000000E+00  1.854644694E-03  3.600355189E+01  5.942600000E+02  7.032580738E-01 
        59  9.996717122E-03 -1.650000053E-03  0.000000000E+00  1.854644749E-03  3.629550394E+01  5.942600177E+02  7.032580948E-01 
        60  1.038796781E-02 -1.650000000E-03  0.000000000E+00  1.854644694E-03  3.652893896E+01  5.942600000E+02  7.032580738E-01 
        61  1.110225324E-02 -1.650000050E-03  0.000000000E+00  1.854644749E-03  3.699181079E+01  5.942600177E+02  7.032580948E-01 
        62  1.129715473E-02 -1.650000051E-03  0.000000000E+00  1.854644749E-03  3.712077875E+01  5.942600177E+02  7.032580948E-01 
        63  1.153289457E-02 -1.649999949E-03  0.000000000E+00  1.854644639E-03  3.753385135E+01  5.942599823E+02  7.032580529E-01 
        64  1.172932302E-02 -1.649999996E-03  0.000000000E+00  1.854644694E-03  3.781120637E+01  5.942600000E+02  7.032580738E-01 
        65  1.189299876E-02 -1.650000052E-03  0.000000000E+00  1.854644749E-03  3.807921260E+01  5.942600177E+02  7.032580948E-01 
        66  1.202938442E-02 -1.649999949E-03  0.000000000E+00  1.854644639E-03  3.833511212E+01  5.942599823E+02  7.032580529E-01 
        67  1.214303390E-02 -1.650000044E-03  0.000000000E+00  1.854644749E-03  3.856732452E+01  5.942600177E+02  7.032580948E-01 
        68  1.223773642E-02 -1.650000012E-03  0.000000000E+00  1.854644694E-03  3.876832034E+01  5.942600000E+02  7.032580738E-01 
        69  1.231665286E-02 -1.650000046E-03  0.000000000E+00  1.854644749E-03  3.892331133E+01  5.942600177E+02  7.032580948E-01 
        70  1.238241385E-02 -1.649999998E-03  0.000000000E+00  3.886262572E-03  3.898487610E+01  5.942600152E+02  0.000000000E+00 
        71  1.110245300E-02 -1.649999996E-03  9.860657205E-04  1.836830589E-03  3.671192383E+01  5.942599999E+02  7.046914944E-01 
        72  1.129741118E-02 -1.649999994E-03  9.860237298E-04  1.836333076E-03  3.683309756E+01  5.942599999E+02  7.048506289E-01 
        73  1.038815708E-02 -1.649999987E-03  9.861987235E-04  1.838584712E-03  3.628120256E+01  5.942600000E+02  7.041327815E-01 
        74  8.805574705E-03 -1.650000021E-03  9.864727040E-04  1.838617669E-03  3.562249607E+01  5.942600088E+02  7.036137139E-01 
        75  9.485717905E-03 -1.650000014E-03  9.863583903E-04  1.838665476E-03  3.586301755E+01  5.942600000E+02  7.037513157E-01 
        76  9.996766092E-03 -1.649999943E-03  9.862710097E-04  1.838621250E-03  3.609698531E+01  5.942599823E+02  7.039641460E-01 
        77  7.730630904E-03 -1.650000039E-03  9.866502961E-04  1.838570130E-03  3.531807089E+01  5.942600133E+02  7.034822931E-01 
        78  8.091212126E-03 -1.649999999E-03  9.865892570E-04  1.838583922E-03  3.541391604E+01  5.942600000E+02  7.035194372E-01 
        79  8.598423723E-03 -1.649999983E-03  9.865066297E-04  1.838603823E-03  3.555192354E+01  5.942599911E+02  7.035730084E-01 
        80  1.153309208E-02 -1.650000032E-03  9.865404178E-04  1.833571343E-03  3.701585255E+01  5.942600088E+02  7.051571543E-01 
        81  7.573036225E-03 -1.650000030E-03  9.866765862E-04  1.838566697E-03  3.528411759E+01  5.942600088E+02  7.034726722E-01 
        82  5.783215100E-03 -1.650000004E-03  9.869826635E-04  1.838538145E-03  3.496096778E+01  5.942600000E+02  7.033929915E-01 
        83  6.035506259E-03 -1.649999949E-03  9.869375075E-04  1.838540588E-03  3.499573781E+01  5.942599823E+02  7.033991425E-01 
        84  6.236595952E-03 -1.650000002E-03  9.869024133E-04  1.838543389E-03  3.502913286E+01  5.942600000E+02  7.034066607E-01 
        85  6.880806203E-03 -1.649999944E-03  9.867931445E-04  1.838552017E-03  3.513975011E+01  5.942599823E+02  7.034309531E-01 
        86  1.172947215E-02 -1.650000029E-03  9.869723181E-04  1.828616753E-03  3.718875821E+01  5.942600088E+02  7.054634527E-01 
        87  4.832561986E-03 -1.649999941E-03  9.871570102E-04  1.838529953E-03  3.484019020E+01  5.942599823E+02  7.033726706E-01 
        88  5.159606270E-03 -1.650000004E-03  9.870976822E-04  1.838532380E-03  3.487849902E+01  5.942600000E+02  7.033786291E-01 
        89  3.947734035E-03 -1.649999955E-03  9.873277149E-04  1.838524063E-03  3.475272885E+01  5.942599823E+02  7.033599094E-01 
        90  4.232942892E-03 -1.649999946E-03  9.872707921E-04  1.838525814E-03  3.477738642E+01  5.942599823E+02  7.033631394E-01 
        91  1.189310817E-02 -1.649999954E-03  9.873330752E-04  1.819920890E-03  3.735203928E+01  5.942599822E+02  7.057495090E-01 
        92  2.914795121E-03 -1.649999999E-03  9.875323253E-04  1.838518374E-03  3.467730176E+01  5.942600000E+02  7.033503981E-01 
        93  3.058937451E-03 -1.650000039E-03  9.875036176E-04  1.838519122E-03  3.468535810E+01  5.942600133E+02  7.033513092E-01 
        94  3.121859929E-03 -1.649999985E-03  9.874906111E-04  1.838519406E-03  3.468949366E+01  5.942599956E+02  7.033517763E-01 
        95  1.285714191E-03 -1.649999950E-03  9.878538017E-04  1.838510877E-03  3.460716042E+01  5.942599823E+02  7.033423364E-01 
        96  1.816924899E-03 -1.650000049E-03  9.877480907E-04  1.838513246E-03  3.462386956E+01  5.942600177E+02  7.033444354E-01 
        97  2.170191834E-03 -1.650000044E-03  9.876810309E-04  1.838514790E-03  3.463847134E+01  5.942600177E+02  7.033460839E-01 
        98  1.202946298E-02 -1.649999953E-03  9.876343321E-04  1.803907699E-03  3.750204651E+01  5.942599822E+02  7.059577782E-01 
        99  1.214308635E-02 -1.649999988E-03  9.878858045E-04  1.779639707E-03  3.762951262E+01  5.942600000E+02  7.056303801E-01 
       100 -3.542577826E-04 -1.650000007E-03  9.881497301E-04  1.838505161E-03  3.458949437E+01  5.942600000E+02  7.033401691E-01 
       101  2.031021205E-04 -1.649999952E-03  9.880507533E-04  1.838506886E-03  3.458898872E+01  5.942599823E+02  7.033402253E-01 
       102  4.512136878E-04 -1.649999952E-03  9.880065915E-04  1.838507710E-03  3.458980154E+01  5.942599823E+02  7.033401439E-01 
       103  5.803136392E-04 -1.649999997E-03  9.879823968E-04  1.838508261E-03  3.459178393E+01  5.942600000E+02  7.033406863E-01 
       104  1.223776813E-02 -1.650000009E-03  9.880956075E-04  2.086242737E-03  3.773073413E+01  5.942600008E+02  6.989338622E-01 
       105 -1.968786396E-03 -1.649999951E-03  9.883890366E-04  1.838501444E-03  3.462589241E+01  5.942599823E+02  7.033453657E-01 
       106 -1.652977683E-03 -1.649999996E-03  9.883474365E-04  1.838502041E-03  3.461491981E+01  5.942600000E+02  7.033439721E-01 
       107 -1.155706233E-03 -1.649999999E-03  9.882811823E-04  1.838503006E-03  3.460134717E+01  5.942600000E+02  7.033419797E-01 
       108 -7.328599352E-04 -1.649999953E-03  9.882105507E-04  1.838504079E-03  3.459390531E+01  5.942599823E+02  7.033408110E-01 
       109  1.231666688E-02 -1.649999993E-03  9.882706246E-04  6.401689667E-03  3.779584458E+01  5.942600057E+02  6.515687961E-01 
       110 -1.238224737E-02 -1.650000051E-03  9.884166253E-04  7.448597452E-03  3.781142794E+01  5.942600550E+02  0.000000000E+00 
       111 -1.231697450E-02 -1.649999999E-03  9.884940960E-04  6.474061503E-03  3.779955677E+01  5.942600055E+02  6.533201287E-01 
       112 -2.327584992E-03 -1.649999952E-03  9.884358288E-04  1.838500947E-03  3.464252110E+01  5.942599823E+02  7.033473840E-01 
       113  1.238241434E-02 -1.650000051E-03  9.884166253E-04  7.381608838E-03  3.780596247E+01  5.942600551E+02  0.000000000E+00 
       114 -1.223864467E-02 -1.650000051E-03  9.885870638E-04  2.097690376E-03  3.773218254E+01  5.942600185E+02  6.989710067E-01 
       115 -1.214464338E-02 -1.649999994E-03  9.886984689E-04  1.776114041E-03  3.763013686E+01  5.942600000E+02  7.054552526E-01 
       116 -4.517199587E-03 -1.649999963E-03  9.887236864E-04  1.838500139E-03  3.480057311E+01  5.942599867E+02  7.033681519E-01 
       117 -4.414670316E-03 -1.650000033E-03  9.887104562E-04  1.838500120E-03  3.479066810E+01  5.942600133E+02  7.033666991E-01 
       118 -3.651595001E-03 -1.650000048E-03  9.886098026E-04  1.838499985E-03  3.472577342E+01  5.942600177E+02  7.033576739E-01 
       119 -3.094823677E-03 -1.650000049E-03  9.885372614E-04  1.838500199E-03  3.468543235E+01  5.942600177E+02  7.033525654E-01 
       120 -2.793029229E-03 -1.649999951E-03  9.884973581E-04  1.838500361E-03  3.466671330E+01  5.942599823E+02  7.033502831E-01 
       121 -1.203183536E-02 -1.650000008E-03  9.888320552E-04  1.801191576E-03  3.750263445E+01  5.942599999E+02  7.057939378E-01 
       122 -5.373331867E-03 -1.650000002E-03  9.888373881E-04  1.838501999E-03  3.489980511E+01  5.942600000E+02  7.033841999E-01 
       123 -4.706021831E-03 -1.649999978E-03  9.887486688E-04  1.838500545E-03  3.482177683E+01  5.942599911E+02  7.033716323E-01 
       124 -1.189645587E-02 -1.650000052E-03  9.889921867E-04  1.818388710E-03  3.735275988E+01  5.942600176E+02  7.056135479E-01 
       125 -5.769750150E-03 -1.650000058E-03  9.888914969E-04  1.838503687E-03  3.495421838E+01  5.942600177E+02  7.033942410E-01 
       126 -7.038392819E-03 -1.649999978E-03  9.890637268E-04  1.838513448E-03  3.516485002E+01  5.942599911E+02  7.034408696E-01 
       127 -6.777981764E-03 -1.650000004E-03  9.890279205E-04  1.838511154E-03  3.511835484E+01  5.942600000E+02  7.034302348E-01 
       128 -6.208507374E-03 -1.649999986E-03  9.889500532E-04  1.838506034E-03  3.501933960E+01  5.942600000E+02  7.034069290E-01 
       129 -1.173398426E-02 -1.649999973E-03  9.891839625E-04  1.827671212E-03  3.718933536E+01  5.942599911E+02  7.053549396E-01 
       130 -7.317166953E-03 -1.650000004E-03  9.891033433E-04  1.838518205E-03  3.522493417E+01  5.942600000E+02  7.034584015E-01 
       131 -8.713682192E-03 -1.650000053E-03  9.893002256E-04  1.838559485E-03  3.558353764E+01  5.942600177E+02  7.035895438E-01 
       132 -8.332633425E-03 -1.649999946E-03  9.892454469E-04  1.838545479E-03  3.547626730E+01  5.942599823E+02  7.035469933E-01 
       133 -7.874710432E-03 -1.649999955E-03  9.891805000E-04  1.838528934E-03  3.535197232E+01  5.942599823E+02  7.034967557E-01 
       134 -1.153899587E-02 -1.649999945E-03  9.894136741E-04  1.832950618E-03  3.701548634E+01  5.942599822E+02  7.050753110E-01 
       135 -9.733691370E-03 -1.650000000E-03  9.894490791E-04  1.838571739E-03  3.596472972E+01  5.942600000E+02  7.038381361E-01 
       136 -9.556210586E-03 -1.650000046E-03  9.894235574E-04  1.838605944E-03  3.588202656E+01  5.942600177E+02  7.037636150E-01 
       137 -9.266405885E-03 -1.650000050E-03  9.893819229E-04  1.838589561E-03  3.577723852E+01  5.942600177E+02  7.037020322E-01 
       138 -1.041736222E-02 -1.649999955E-03  9.895527119E-04  1.838448509E-03  3.628986891E+01  5.942599823E+02  7.041265442E-01 
       139 -1.130497527E-02 -1.649999952E-03  9.896886455E-04  1.835913432E-03  3.683092321E+01  5.942599822E+02  7.047929188E-01 
       140 -1.104863784E-02 -1.650000007E-03  9.896471749E-04  1.836651111E-03  3.667203449E+01  5.942599999E+02  7.045976869E-01 
       141  1.110265300E-02 -1.649999997E-03  1.972140752E-03  1.823559797E-03  3.601916947E+01  5.942600000E+02  7.059954884E-01 
       142  1.129766783E-02 -1.649999997E-03  1.972047450E-03  1.822289418E-03  3.607587077E+01  5.942600000E+02  7.062613256E-01 
       143  1.038834619E-02 -1.649999990E-03  1.972439484E-03  1.828044959E-03  3.581486114E+01  5.942600000E+02  7.050585606E-01 
       144  9.996815845E-03 -1.649999998E-03  1.972603110E-03  1.828263967E-03  3.570535592E+01  5.942600000E+02  7.047517001E-01 
       145  9.485811853E-03 -1.649999993E-03  1.972800993E-03  1.828531332E-03  3.556625308E+01  5.942600000E+02  7.043635929E-01 
       146  8.598398070E-03 -1.649999998E-03  1.973137196E-03  1.828460561E-03  3.534638293E+01  5.942600000E+02  7.040007837E-01 
       147  8.805409659E-03 -1.650000022E-03  1.973060752E-03  1.828476098E-03  3.539614088E+01  5.942600088E+02  7.040833958E-01 
       148  1.153328860E-02 -1.649999970E-03  1.973080771E-03  1.816140476E-03  3.613568325E+01  5.942599911E+02  7.067276152E-01 
       149  8.091608969E-03 -1.650000003E-03  1.973322042E-03  1.828426849E-03  3.523898688E+01  5.942600000E+02  7.038842823E-01 
       150  7.572601876E-03 -1.650000025E-03  1.973515861E-03  1.828397261E-03  3.513606688E+01  5.942600088E+02  7.037814971E-01 
       151  7.730469083E-03 -1.650000002E-03  1.973458047E-03  1.828403377E-03  3.516419776E+01  5.942600000E+02  7.038033280E-01 
