nodenumber     x-coordinate     y-coordinate     z-coordinate turb-kinetic-energy         pressure      temperature velocity-magnitude 
         1 -1.238224696E-02 -1.650000007E-03  0.000000000E+00  4.486183599E-03  4.330913799E+01  5.942600177E+02  0.000000000E+00 
         2 -1.231646687E-02 -1.649999949E-03  0.000000000E+00  2.165252565E-03  4.324193322E+01  5.942599823E+02  7.598688483E-01 
         3 -1.223752875E-02 -1.650000008E-03  0.000000000E+00  2.165252629E-03  4.307343648E+01  5.942600000E+02  7.598688710E-01 
         4 -1.214279805E-02 -1.649999951E-03  0.000000000E+00  2.165252565E-03  4.285476842E+01  5.942599823E+02  7.598688483E-01 
         5 -1.202911553E-02 -1.649999951E-03  0.000000000E+00  2.165252565E-03  4.260182047E+01  5.942599823E+02  7.598688483E-01 
         6 -1.189268779E-02 -1.650000001E-03  0.000000000E+00  2.165252629E-03  4.232243076E+01  5.942600000E+02  7.598688710E-01 
         7 -1.172896070E-02 -1.650000028E-03  0.000000000E+00  2.165252661E-03  4.202822002E+01  5.942600089E+02  7.598688823E-01 
         8 -1.153246726E-02 -1.649999968E-03  0.000000000E+00  2.165252597E-03  4.172213771E+01  5.942599911E+02  7.598688597E-01 
         9 -1.129664480E-02 -1.649999999E-03  0.000000000E+00  2.165252629E-03  4.126223534E+01  5.942600000E+02  7.598688710E-01 
        10 -1.104180182E-02 -1.649999952E-03  0.000000000E+00  2.165252565E-03  4.107196399E+01  5.942599823E+02  7.598688483E-01 
        11 -1.040965475E-02 -1.650000037E-03  0.000000000E+00  2.165252694E-03  4.061093729E+01  5.942600177E+02  7.598688936E-01 
        12 -9.727797567E-03 -1.649999974E-03  0.000000000E+00  2.165252597E-03  4.015438132E+01  5.942599911E+02  7.598688597E-01 
        13 -9.549135039E-03 -1.650000016E-03  0.000000000E+00  2.165252661E-03  4.003629727E+01  5.942600089E+02  7.598688823E-01 
        14 -9.257402967E-03 -1.649999996E-03  0.000000000E+00  2.165252629E-03  3.989875100E+01  5.942600000E+02  7.598688710E-01 
        15 -8.707201624E-03 -1.650000004E-03  0.000000000E+00  2.165252629E-03  3.964596925E+01  5.942600000E+02  7.598688710E-01 
        16 -8.327874969E-03 -1.650000002E-03  0.000000000E+00  2.165252629E-03  3.950972904E+01  5.942600000E+02  7.598688710E-01 
        17 -7.868819436E-03 -1.650000009E-03  0.000000000E+00  2.165252629E-03  3.934975610E+01  5.942600000E+02  7.598688710E-01 
        18 -7.309914944E-03 -1.650000005E-03  0.000000000E+00  2.165252629E-03  3.919241389E+01  5.942600000E+02  7.598688710E-01 
        19 -7.033056079E-03 -1.649999952E-03  0.000000000E+00  2.165252565E-03  3.911912563E+01  5.942599823E+02  7.598688483E-01 
        20 -6.774404682E-03 -1.650000049E-03  0.000000000E+00  2.165252694E-03  3.906411376E+01  5.942600177E+02  7.598688936E-01 
        21 -6.203718579E-03 -1.649999993E-03  0.000000000E+00  2.165252629E-03  3.894702206E+01  5.942600000E+02  7.598688710E-01 
        22 -5.764059055E-03 -1.650000057E-03  0.000000000E+00  2.165252694E-03  3.886881852E+01  5.942600177E+02  7.598688936E-01 
        23 -5.369046210E-03 -1.650000008E-03  0.000000000E+00  2.165252629E-03  3.880463767E+01  5.942600000E+02  7.598688710E-01 
        24 -4.703991919E-03 -1.649999998E-03  0.000000000E+00  2.165252629E-03  3.871314710E+01  5.942600000E+02  7.598688710E-01 
        25 -4.513416810E-03 -1.649999963E-03  0.000000000E+00  2.165252581E-03  3.868789190E+01  5.942599867E+02  7.598688540E-01 
        26 -4.409949101E-03 -1.650000002E-03  0.000000000E+00  2.165252629E-03  3.867623777E+01  5.942600000E+02  7.598688710E-01 
        27 -3.648226494E-03 -1.649999989E-03  0.000000000E+00  2.165252629E-03  3.860072377E+01  5.942600000E+02  7.598688710E-01 
        28 -3.090814824E-03 -1.649999990E-03  0.000000000E+00  2.165252629E-03  3.855318656E+01  5.942600000E+02  7.598688710E-01 
        29 -2.790049428E-03 -1.649999975E-03  0.000000000E+00  2.165252597E-03  3.853149074E+01  5.942599911E+02  7.598688597E-01 
        30 -2.326109559E-03 -1.650000046E-03  0.000000000E+00  2.165252694E-03  3.850399751E+01  5.942600177E+02  7.598688936E-01 
        31 -1.966101120E-03 -1.650000005E-03  0.000000000E+00  2.165252629E-03  3.848495971E+01  5.942600000E+02  7.598688710E-01 
        32 -1.649288649E-03 -1.650000004E-03  0.000000000E+00  2.165252629E-03  3.847272813E+01  5.942600000E+02  7.598688710E-01 
        33 -1.153324779E-03 -1.650000049E-03  0.000000000E+00  2.165252694E-03  3.845810634E+01  5.942600177E+02  7.598688936E-01 
        34 -7.314993435E-04 -1.649999992E-03  0.000000000E+00  2.165252629E-03  3.844988041E+01  5.942600000E+02  7.598688710E-01 
        35 -3.521276869E-04 -1.650000043E-03  0.000000000E+00  2.165252694E-03  3.844523943E+01  5.942600177E+02  7.598688936E-01 
        36  2.062356178E-04 -1.650000004E-03  0.000000000E+00  2.165252629E-03  3.844486374E+01  5.942600000E+02  7.598688710E-01 
        37  4.531226353E-04 -1.649999970E-03  0.000000000E+00  2.165252597E-03  3.844602203E+01  5.942599911E+02  7.598688597E-01 
        38  5.816147412E-04 -1.650000031E-03  0.000000000E+00  2.165252661E-03  3.844835417E+01  5.942600089E+02  7.598688823E-01 
        39  1.287381078E-03 -1.649999940E-03  0.000000000E+00  2.165252565E-03  3.846712029E+01  5.942599823E+02  7.598688483E-01 
        40  1.817906072E-03 -1.650000045E-03  0.000000000E+00  2.165252694E-03  3.848684982E+01  5.942600177E+02  7.598688936E-01 
        41  2.171618469E-03 -1.649999958E-03  0.000000000E+00  2.165252565E-03  3.850405681E+01  5.942599823E+02  7.598688483E-01 
        42  2.917015337E-03 -1.650000026E-03  0.000000000E+00  2.165252661E-03  3.855008176E+01  5.942600089E+02  7.598688823E-01 
        43  3.060138752E-03 -1.649999982E-03  0.000000000E+00  2.165252605E-03  3.855952964E+01  5.942599934E+02  7.598688625E-01 
        44  3.122627803E-03 -1.650000012E-03  0.000000000E+00  2.165252645E-03  3.856449733E+01  5.942600044E+02  7.598688767E-01 
        45  3.948750735E-03 -1.649999946E-03  0.000000000E+00  2.165252565E-03  3.864024766E+01  5.942599823E+02  7.598688483E-01 
        46  4.233552192E-03 -1.650000005E-03  0.000000000E+00  2.165252629E-03  3.866839677E+01  5.942600000E+02  7.598688710E-01 
        47  4.833507872E-03 -1.649999945E-03  0.000000000E+00  2.165252565E-03  3.874097046E+01  5.942599823E+02  7.598688483E-01 
        48  5.160210487E-03 -1.649999946E-03  0.000000000E+00  2.165252565E-03  3.878570961E+01  5.942599823E+02  7.598688483E-01 
        49  5.783248106E-03 -1.650000052E-03  0.000000000E+00  2.165252694E-03  3.888690167E+01  5.942600177E+02  7.598688936E-01 
        50  6.035984549E-03 -1.649999976E-03  0.000000000E+00  2.165252597E-03  3.893031894E+01  5.942599911E+02  7.598688597E-01 
        51  6.237400109E-03 -1.650000022E-03  0.000000000E+00  2.165252661E-03  3.896997366E+01  5.942600089E+02  7.598688823E-01 
        52  6.881112835E-03 -1.650000056E-03  0.000000000E+00  2.165252694E-03  3.910265244E+01  5.942600177E+02  7.598688936E-01 
        53  7.573470319E-03 -1.649999997E-03  0.000000000E+00  2.165252629E-03  3.927879646E+01  5.942600000E+02  7.598688710E-01 
        54  7.730792309E-03 -1.650000003E-03  0.000000000E+00  2.165252629E-03  3.932021231E+01  5.942600000E+02  7.598688710E-01 
        55  8.090815089E-03 -1.650000001E-03  0.000000000E+00  2.165252629E-03  3.944097609E+01  5.942600000E+02  7.598688710E-01 
        56  8.598449542E-03 -1.650000003E-03  0.000000000E+00  2.165252629E-03  3.961539803E+01  5.942600000E+02  7.598688710E-01 
        57  8.805739513E-03 -1.650000003E-03  0.000000000E+00  2.165252629E-03  3.970873350E+01  5.942600000E+02  7.598688710E-01 
        58  9.485623847E-03 -1.649999997E-03  0.000000000E+00  2.165252629E-03  4.002665352E+01  5.942600000E+02  7.598688710E-01 
        59  9.996717122E-03 -1.650000053E-03  0.000000000E+00  2.165252694E-03  4.035910432E+01  5.942600177E+02  7.598688936E-01 
        60  1.038796781E-02 -1.650000000E-03  0.000000000E+00  2.165252629E-03  4.062491354E+01  5.942600000E+02  7.598688710E-01 
        61  1.110225324E-02 -1.650000050E-03  0.000000000E+00  2.165252694E-03  4.115207043E+01  5.942600177E+02  7.598688936E-01 
        62  1.129715473E-02 -1.650000051E-03  0.000000000E+00  2.165252694E-03  4.129894774E+01  5.942600177E+02  7.598688936E-01 
        63  1.153289457E-02 -1.649999949E-03  0.000000000E+00  2.165252565E-03  4.176934397E+01  5.942599823E+02  7.598688483E-01 
        64  1.172932302E-02 -1.649999996E-03  0.000000000E+00  2.165252629E-03  4.208507381E+01  5.942600000E+02  7.598688710E-01 
        65  1.189299876E-02 -1.650000052E-03  0.000000000E+00  2.165252694E-03  4.239008197E+01  5.942600177E+02  7.598688936E-01 
        66  1.202938442E-02 -1.649999949E-03  0.000000000E+00  2.165252565E-03  4.268139521E+01  5.942599823E+02  7.598688483E-01 
        67  1.214303390E-02 -1.650000044E-03  0.000000000E+00  2.165252694E-03  4.294609954E+01  5.942600177E+02  7.598688936E-01 
        68  1.223773642E-02 -1.650000012E-03  0.000000000E+00  2.165252629E-03  4.317556346E+01  5.942600000E+02  7.598688710E-01 
        69  1.231665286E-02 -1.650000046E-03  0.000000000E+00  2.165252694E-03  4.335236354E+01  5.942600177E+02  7.598688936E-01 
        70  1.238241385E-02 -1.649999998E-03  0.000000000E+00  4.457777719E-03  4.342245842E+01  5.942600177E+02  0.000000000E+00 
        71  1.110245300E-02 -1.649999996E-03  9.860657205E-04  2.144441026E-03  4.083327494E+01  5.942599999E+02  7.613791945E-01 
        72  1.129741118E-02 -1.649999994E-03  9.860237298E-04  2.143862290E-03  4.097129487E+01  5.942599999E+02  7.615467393E-01 
        73  1.038815708E-02 -1.649999987E-03  9.861987235E-04  2.146481951E-03  4.034266536E+01  5.942600000E+02  7.607909608E-01 
        74  8.805574705E-03 -1.650000021E-03  9.864727040E-04  2.146532479E-03  3.959283265E+01  5.942600088E+02  7.602439119E-01 
        75  9.485717905E-03 -1.650000014E-03  9.863583903E-04  2.146585020E-03  3.986648425E+01  5.942600000E+02  7.603890581E-01 
        76  9.996766092E-03 -1.649999943E-03  9.862710097E-04  2.146528524E-03  4.013290480E+01  5.942599823E+02  7.606132889E-01 
        77  7.730630904E-03 -1.650000039E-03  9.866502961E-04  2.146479668E-03  3.924672178E+01  5.942600133E+02  7.601051072E-01 
        78  8.091212126E-03 -1.649999999E-03  9.865892570E-04  2.146495061E-03  3.935566524E+01  5.942600000E+02  7.601443621E-01 
        79  8.598423723E-03 -1.649999983E-03  9.865066297E-04  2.146517268E-03  3.951253039E+01  5.942599911E+02  7.602009755E-01 
        80  1.153309208E-02 -1.650000032E-03  9.865404178E-04  2.140671589E-03  4.117943076E+01  5.942600088E+02  7.618692822E-01 
        81  7.573036225E-03 -1.650000030E-03  9.866765862E-04  2.146475821E-03  3.920816953E+01  5.942600088E+02  7.600949176E-01 
        82  5.783215100E-03 -1.650000004E-03  9.869826635E-04  2.146443761E-03  3.884133239E+01  5.942600000E+02  7.600104488E-01 
        83  6.035506259E-03 -1.649999949E-03  9.869375075E-04  2.146446513E-03  3.888078299E+01  5.942599823E+02  7.600169860E-01 
        84  6.236595952E-03 -1.650000002E-03  9.869024133E-04  2.146449664E-03  3.891869025E+01  5.942600000E+02  7.600249628E-01 
        85  6.880806203E-03 -1.649999944E-03  9.867931445E-04  2.146459359E-03  3.904421240E+01  5.942599823E+02  7.600507403E-01 
        86  1.172947215E-02 -1.650000029E-03  9.869723181E-04  2.134961903E-03  4.137625562E+01  5.942600088E+02  7.621914505E-01 
        87  4.832561986E-03 -1.649999941E-03  9.871570102E-04  2.146434501E-03  3.870430542E+01  5.942599823E+02  7.599888453E-01 
        88  5.159606270E-03 -1.650000004E-03  9.870976822E-04  2.146437251E-03  3.874775712E+01  5.942600000E+02  7.599951818E-01 
        89  3.947734035E-03 -1.649999955E-03  9.873277149E-04  2.146427811E-03  3.860501178E+01  5.942599823E+02  7.599752670E-01 
        90  4.232942892E-03 -1.649999946E-03  9.872707921E-04  2.146429805E-03  3.863301828E+01  5.942599823E+02  7.599787069E-01 
        91  1.189310817E-02 -1.649999954E-03  9.873330752E-04  2.124976569E-03  4.156211451E+01  5.942599822E+02  7.624922250E-01 
        92  2.914795121E-03 -1.649999999E-03  9.875323253E-04  2.146421316E-03  3.851922271E+01  5.942600000E+02  7.599651401E-01 
        93  3.058937451E-03 -1.650000039E-03  9.875036176E-04  2.146422176E-03  3.852841217E+01  5.942600133E+02  7.599661101E-01 
        94  3.121859929E-03 -1.649999985E-03  9.874906111E-04  2.146422499E-03  3.853311966E+01  5.942599956E+02  7.599666075E-01 
        95  1.285714191E-03 -1.649999950E-03  9.878538017E-04  2.146412679E-03  3.843886639E+01  5.942599823E+02  7.599565646E-01 
        96  1.816924899E-03 -1.650000049E-03  9.877480907E-04  2.146415422E-03  3.845813753E+01  5.942600177E+02  7.599587895E-01 
        97  2.170191834E-03 -1.650000044E-03  9.876810309E-04  2.146417202E-03  3.847488214E+01  5.942600177E+02  7.599605484E-01 
        98  1.202946298E-02 -1.649999953E-03  9.876343321E-04  2.106674393E-03  4.173298424E+01  5.942599822E+02  7.627118871E-01 
        99  1.214308635E-02 -1.649999988E-03  9.878858045E-04  2.078091256E-03  4.187838498E+01  5.942600000E+02  7.623800976E-01 
       100 -3.542577826E-04 -1.650000007E-03  9.881497301E-04  2.146406013E-03  3.841744220E+01  5.942600000E+02  7.599542577E-01 
       101  2.031021205E-04 -1.649999952E-03  9.880507533E-04  2.146408037E-03  3.841741306E+01  5.942599823E+02  7.599543184E-01 
       102  4.512136878E-04 -1.649999952E-03  9.880065915E-04  2.146409002E-03  3.841856775E+01  5.942599823E+02  7.599542609E-01 
       103  5.803136392E-04 -1.649999997E-03  9.879823968E-04  2.146409643E-03  3.842091720E+01  5.942600000E+02  7.599548139E-01 
       104  1.223776813E-02 -1.650000009E-03  9.880956075E-04  2.408515942E-03  4.199405021E+01  5.942600009E+02  7.553884570E-01 
       105 -1.968786396E-03 -1.649999951E-03  9.883890366E-04  2.146401575E-03  3.845669613E+01  5.942599823E+02  7.599597866E-01 
       106 -1.652977683E-03 -1.649999996E-03  9.883474365E-04  2.146402298E-03  3.844468831E+01  5.942600000E+02  7.599582846E-01 
       107 -1.155706233E-03 -1.649999999E-03  9.882811823E-04  2.146403460E-03  3.842995490E+01  5.942600000E+02  7.599561194E-01 
       108 -7.328599352E-04 -1.649999953E-03  9.882105507E-04  2.146404735E-03  3.842201781E+01  5.942599823E+02  7.599549214E-01 
       109  1.231666688E-02 -1.649999993E-03  9.882706246E-04  7.304545575E-03  4.206842514E+01  5.942600066E+02  7.053256147E-01 
       110 -1.238224737E-02 -1.650000051E-03  9.884166253E-04  8.493046992E-03  4.207361404E+01  5.942600612E+02  0.000000000E+00 
       111 -1.231697450E-02 -1.649999999E-03  9.884940960E-04  7.386139636E-03  4.206008719E+01  5.942600063E+02  7.072013875E-01 
       112 -2.327584992E-03 -1.649999952E-03  9.884358288E-04  2.146400957E-03  3.847501111E+01  5.942599823E+02  7.599619585E-01 
       113  1.238241434E-02 -1.650000051E-03  9.884166253E-04  8.417510468E-03  4.207997773E+01  5.942600613E+02  0.000000000E+00 
       114 -1.223864467E-02 -1.650000051E-03  9.885870638E-04  2.420816753E-03  4.198315893E+01  5.942600186E+02  7.554267355E-01 
       115 -1.214464338E-02 -1.649999994E-03  9.886984689E-04  2.073867793E-03  4.186644029E+01  5.942600000E+02  7.621935954E-01 
       116 -4.517199587E-03 -1.649999963E-03  9.887236864E-04  2.146399654E-03  3.865051655E+01  5.942599867E+02  7.599842861E-01 
       117 -4.414670316E-03 -1.650000033E-03  9.887104562E-04  2.146399656E-03  3.863946491E+01  5.942600133E+02  7.599827248E-01 
       118 -3.651595001E-03 -1.650000048E-03  9.886098026E-04  2.146399647E-03  3.856723239E+01  5.942600177E+02  7.599730239E-01 
       119 -3.094823677E-03 -1.650000049E-03  9.885372614E-04  2.146399989E-03  3.852243648E+01  5.942600177E+02  7.599675333E-01 
       120 -2.793029229E-03 -1.649999951E-03  9.884973581E-04  2.146400219E-03  3.850171413E+01  5.942599823E+02  7.599650810E-01 
       121 -1.203183536E-02 -1.650000008E-03  9.888320552E-04  2.103581085E-03  4.172110675E+01  5.942599999E+02  7.625398782E-01 
       122 -5.373331867E-03 -1.650000002E-03  9.888373881E-04  2.146401578E-03  3.876149159E+01  5.942600000E+02  7.600015351E-01 
       123 -4.706021831E-03 -1.649999978E-03  9.887486688E-04  2.146400074E-03  3.867422617E+01  5.942599911E+02  7.599880274E-01 
       124 -1.189645587E-02 -1.650000052E-03  9.889921867E-04  2.123228485E-03  4.155032442E+01  5.942600176E+02  7.623481381E-01 
       125 -5.769750150E-03 -1.650000058E-03  9.888914969E-04  2.146403402E-03  3.882251369E+01  5.942600177E+02  7.600123217E-01 
       126 -7.038392819E-03 -1.649999978E-03  9.890637268E-04  2.146414159E-03  3.905950963E+01  5.942599911E+02  7.600622426E-01 
       127 -6.777981764E-03 -1.650000004E-03  9.890279205E-04  2.146411623E-03  3.900715321E+01  5.942600000E+02  7.600508615E-01 
       128 -6.208507374E-03 -1.649999986E-03  9.889500532E-04  2.146405954E-03  3.889563748E+01  5.942600000E+02  7.600259332E-01 
       129 -1.173398426E-02 -1.649999973E-03  9.891839625E-04  2.133880644E-03  4.136426595E+01  5.942599911E+02  7.620752233E-01 
       130 -7.317166953E-03 -1.650000004E-03  9.891033433E-04  2.146419472E-03  3.912740679E+01  5.942600000E+02  7.600809109E-01 
       131 -8.713682192E-03 -1.650000053E-03  9.893002256E-04  2.146465529E-03  3.953374147E+01  5.942600177E+02  7.602198796E-01 
       132 -8.332633425E-03 -1.649999946E-03  9.892454469E-04  2.146449901E-03  3.941205845E+01  5.942599823E+02  7.601748520E-01 
       133 -7.874710432E-03 -1.649999955E-03  9.891805000E-04  2.146431454E-03  3.927105605E+01  5.942599823E+02  7.601217094E-01 
       134 -1.153899587E-02 -1.649999945E-03  9.894136741E-04  2.139960716E-03  4.116624044E+01  5.942599822E+02  7.617806055E-01 
       135 -9.733691370E-03 -1.650000000E-03  9.894490791E-04  2.146474547E-03  3.996772628E+01  5.942600000E+02  7.604812730E-01 
       136 -9.556210586E-03 -1.650000046E-03  9.894235574E-04  2.146515964E-03  3.987341185E+01  5.942600177E+02  7.604030672E-01 
       137 -9.266405885E-03 -1.650000050E-03  9.893819229E-04  2.146498193E-03  3.975415413E+01  5.942600177E+02  7.603382662E-01 
       138 -1.041736222E-02 -1.649999955E-03  9.895527119E-04  2.146324833E-03  4.033850819E+01  5.942599822E+02  7.607839552E-01 
       139 -1.130497527E-02 -1.649999952E-03  9.896886455E-04  2.143380986E-03  4.095582984E+01  5.942599822E+02  7.614835642E-01 
       140 -1.104863784E-02 -1.650000007E-03  9.896471749E-04  2.144237635E-03  4.077454162E+01  5.942599999E+02  7.612786026E-01 
       141  1.110265300E-02 -1.649999997E-03  1.972140752E-03  2.128967290E-03  4.004425294E+01  5.942600000E+02  7.627540022E-01 
       142  1.129766783E-02 -1.649999997E-03  1.972047450E-03  2.127494118E-03  4.010893922E+01  5.942600000E+02  7.630339054E-01 
       143  1.038834619E-02 -1.649999990E-03  1.972439484E-03  2.134168931E-03  3.981116994E+01  5.942600000E+02  7.617675042E-01 
       144  9.996815845E-03 -1.649999998E-03  1.972603110E-03  2.134428511E-03  3.968650203E+01  5.942600000E+02  7.614441297E-01 
       145  9.485811853E-03 -1.649999993E-03  1.972800993E-03  2.134745528E-03  3.952812584E+01  5.942600000E+02  7.610351374E-01 
       146  8.598398070E-03 -1.649999998E-03  1.973137196E-03  2.134669426E-03  3.927828689E+01  5.942600000E+02  7.606521717E-01 
       147  8.805409659E-03 -1.650000022E-03  1.973060752E-03  2.134686102E-03  3.933483420E+01  5.942600088E+02  7.607393720E-01 
       148  1.153328860E-02 -1.649999970E-03  1.973080771E-03  2.120391179E-03  4.017729951E+01  5.942599911E+02  7.635244882E-01 
       149  8.091608969E-03 -1.650000003E-03  1.973322042E-03  2.134631779E-03  3.915643902E+01  5.942600000E+02  7.605289265E-01 
       150  7.572601876E-03 -1.650000025E-03  1.973515861E-03  2.134598686E-03  3.903970878E+01  5.942600088E+02  7.604201347E-01 
       151  7.730469083E-03 -1.650000002E-03  1.973458047E-03  2.134605556E-03  3.907158522E+01  5.942600000E+02  7.604432801E-01 
