nodenumber     x-coordinate     y-coordinate     z-coordinate turb-kinetic-energy         pressure      temperature velocity-magnitude 
         1 -1.238224696E-02 -1.650000007E-03  0.000000000E+00  4.498595243E-03  4.340411371E+01  5.942600177E+02  0.000000000E+00 
         2 -1.231646687E-02 -1.649999949E-03  0.000000000E+00  2.172014732E-03  4.333673390E+01  5.942599823E+02  7.610544733E-01 
         3 -1.223752875E-02 -1.650000008E-03  0.000000000E+00  2.172014797E-03  4.316779296E+01  5.942600000E+02  7.610544959E-01 
         4 -1.214279805E-02 -1.649999951E-03  0.000000000E+00  2.172014732E-03  4.294854396E+01  5.942599823E+02  7.610544733E-01 
         5 -1.202911553E-02 -1.649999951E-03  0.000000000E+00  2.172014732E-03  4.269493029E+01  5.942599823E+02  7.610544733E-01 
         6 -1.189268779E-02 -1.650000001E-03  0.000000000E+00  2.172014797E-03  4.241481238E+01  5.942600000E+02  7.610544959E-01 
         7 -1.172896070E-02 -1.650000028E-03  0.000000000E+00  2.172014829E-03  4.211983591E+01  5.942600089E+02  7.610545073E-01 
         8 -1.153246726E-02 -1.649999968E-03  0.000000000E+00  2.172014764E-03  4.181295489E+01  5.942599911E+02  7.610544846E-01 
         9 -1.129664480E-02 -1.649999999E-03  0.000000000E+00  2.172014797E-03  4.135184685E+01  5.942600000E+02  7.610544959E-01 
        10 -1.104180182E-02 -1.649999952E-03  0.000000000E+00  2.172014732E-03  4.116107338E+01  5.942599823E+02  7.610544733E-01 
        11 -1.040965475E-02 -1.650000037E-03  0.000000000E+00  2.172014861E-03  4.069883377E+01  5.942600177E+02  7.610545186E-01 
        12 -9.727797567E-03 -1.649999974E-03  0.000000000E+00  2.172014764E-03  4.024106928E+01  5.942599911E+02  7.610544846E-01 
        13 -9.549135039E-03 -1.650000016E-03  0.000000000E+00  2.172014829E-03  4.012267425E+01  5.942600089E+02  7.610545073E-01 
        14 -9.257402967E-03 -1.649999996E-03  0.000000000E+00  2.172014797E-03  3.998476429E+01  5.942600000E+02  7.610544959E-01 
        15 -8.707201624E-03 -1.650000004E-03  0.000000000E+00  2.172014797E-03  3.973131432E+01  5.942600000E+02  7.610544959E-01 
        16 -8.327874969E-03 -1.650000002E-03  0.000000000E+00  2.172014797E-03  3.959471434E+01  5.942600000E+02  7.610544959E-01 
        17 -7.868819436E-03 -1.650000009E-03  0.000000000E+00  2.172014797E-03  3.943432212E+01  5.942600000E+02  7.610544959E-01 
        18 -7.309914944E-03 -1.650000005E-03  0.000000000E+00  2.172014797E-03  3.927656936E+01  5.942600000E+02  7.610544959E-01 
        19 -7.033056079E-03 -1.649999952E-03  0.000000000E+00  2.172014732E-03  3.920309013E+01  5.942599823E+02  7.610544733E-01 
        20 -6.774404682E-03 -1.650000049E-03  0.000000000E+00  2.172014861E-03  3.914793683E+01  5.942600177E+02  7.610545186E-01 
        21 -6.203718579E-03 -1.649999993E-03  0.000000000E+00  2.172014797E-03  3.903054563E+01  5.942600000E+02  7.610544959E-01 
        22 -5.764059055E-03 -1.650000057E-03  0.000000000E+00  2.172014861E-03  3.895214479E+01  5.942600177E+02  7.610545186E-01 
        23 -5.369046210E-03 -1.650000008E-03  0.000000000E+00  2.172014797E-03  3.888780295E+01  5.942600000E+02  7.610544959E-01 
        24 -4.703991919E-03 -1.649999998E-03  0.000000000E+00  2.172014797E-03  3.879608710E+01  5.942600000E+02  7.610544959E-01 
        25 -4.513416810E-03 -1.649999963E-03  0.000000000E+00  2.172014748E-03  3.877076997E+01  5.942599867E+02  7.610544789E-01 
        26 -4.409949101E-03 -1.650000002E-03  0.000000000E+00  2.172014797E-03  3.875908770E+01  5.942600000E+02  7.610544959E-01 
        27 -3.648226494E-03 -1.649999989E-03  0.000000000E+00  2.172014797E-03  3.868339471E+01  5.942600000E+02  7.610544959E-01 
        28 -3.090814824E-03 -1.649999990E-03  0.000000000E+00  2.172014797E-03  3.863574713E+01  5.942600000E+02  7.610544959E-01 
        29 -2.790049428E-03 -1.649999975E-03  0.000000000E+00  2.172014764E-03  3.861400232E+01  5.942599911E+02  7.610544846E-01 
        30 -2.326109559E-03 -1.650000046E-03  0.000000000E+00  2.172014861E-03  3.858644882E+01  5.942600177E+02  7.610545186E-01 
        31 -1.966101120E-03 -1.650000005E-03  0.000000000E+00  2.172014797E-03  3.856737019E+01  5.942600000E+02  7.610544959E-01 
        32 -1.649288649E-03 -1.650000004E-03  0.000000000E+00  2.172014797E-03  3.855511417E+01  5.942600000E+02  7.610544959E-01 
        33 -1.153324779E-03 -1.650000049E-03  0.000000000E+00  2.172014861E-03  3.854046591E+01  5.942600177E+02  7.610545186E-01 
        34 -7.314993435E-04 -1.649999992E-03  0.000000000E+00  2.172014797E-03  3.853222807E+01  5.942600000E+02  7.610544959E-01 
        35 -3.521276869E-04 -1.650000043E-03  0.000000000E+00  2.172014861E-03  3.852758330E+01  5.942600177E+02  7.610545186E-01 
        36  2.062356178E-04 -1.650000004E-03  0.000000000E+00  2.172014797E-03  3.852721804E+01  5.942600000E+02  7.610544959E-01 
        37  4.531226353E-04 -1.649999970E-03  0.000000000E+00  2.172014764E-03  3.852838430E+01  5.942599911E+02  7.610544846E-01 
        38  5.816147412E-04 -1.650000031E-03  0.000000000E+00  2.172014829E-03  3.853072505E+01  5.942600089E+02  7.610545073E-01 
        39  1.287381078E-03 -1.649999940E-03  0.000000000E+00  2.172014732E-03  3.854955361E+01  5.942599823E+02  7.610544733E-01 
        40  1.817906072E-03 -1.650000045E-03  0.000000000E+00  2.172014861E-03  3.856934455E+01  5.942600177E+02  7.610545186E-01 
        41  2.171618469E-03 -1.649999958E-03  0.000000000E+00  2.172014732E-03  3.858660273E+01  5.942599823E+02  7.610544733E-01 
        42  2.917015337E-03 -1.650000026E-03  0.000000000E+00  2.172014829E-03  3.863276063E+01  5.942600089E+02  7.610545073E-01 
        43  3.060138752E-03 -1.649999982E-03  0.000000000E+00  2.172014772E-03  3.864223559E+01  5.942599934E+02  7.610544874E-01 
        44  3.122627803E-03 -1.650000012E-03  0.000000000E+00  2.172014813E-03  3.864721728E+01  5.942600044E+02  7.610545016E-01 
        45  3.948750735E-03 -1.649999946E-03  0.000000000E+00  2.172014732E-03  3.872317847E+01  5.942599823E+02  7.610544733E-01 
        46  4.233552192E-03 -1.650000005E-03  0.000000000E+00  2.172014797E-03  3.875140538E+01  5.942600000E+02  7.610544959E-01 
        47  4.833507872E-03 -1.649999945E-03  0.000000000E+00  2.172014732E-03  3.882417760E+01  5.942599823E+02  7.610544733E-01 
        48  5.160210487E-03 -1.649999946E-03  0.000000000E+00  2.172014732E-03  3.886903851E+01  5.942599823E+02  7.610544733E-01 
        49  5.783248106E-03 -1.650000052E-03  0.000000000E+00  2.172014861E-03  3.897050512E+01  5.942600177E+02  7.610545186E-01 
        50  6.035984549E-03 -1.649999976E-03  0.000000000E+00  2.172014764E-03  3.901403998E+01  5.942599911E+02  7.610544846E-01 
        51  6.237400109E-03 -1.650000022E-03  0.000000000E+00  2.172014829E-03  3.905380167E+01  5.942600089E+02  7.610545073E-01 
        52  6.881112835E-03 -1.650000056E-03  0.000000000E+00  2.172014861E-03  3.918683799E+01  5.942600177E+02  7.610545186E-01 
        53  7.573470319E-03 -1.649999997E-03  0.000000000E+00  2.172014797E-03  3.936345532E+01  5.942600000E+02  7.610544959E-01 
        54  7.730792309E-03 -1.650000003E-03  0.000000000E+00  2.172014797E-03  3.940498237E+01  5.942600000E+02  7.610544959E-01 
        55  8.090815089E-03 -1.650000001E-03  0.000000000E+00  2.172014797E-03  3.952606942E+01  5.942600000E+02  7.610544959E-01 
        56  8.598449542E-03 -1.650000003E-03  0.000000000E+00  2.172014797E-03  3.970095809E+01  5.942600000E+02  7.610544959E-01 
        57  8.805739513E-03 -1.650000003E-03  0.000000000E+00  2.172014797E-03  3.979454239E+01  5.942600000E+02  7.610544959E-01 
        58  9.485623847E-03 -1.649999997E-03  0.000000000E+00  2.172014797E-03  4.011330956E+01  5.942600000E+02  7.610544959E-01 
        59  9.996717122E-03 -1.650000053E-03  0.000000000E+00  2.172014861E-03  4.044664209E+01  5.942600177E+02  7.610545186E-01 
        60  1.038796781E-02 -1.650000000E-03  0.000000000E+00  2.172014797E-03  4.071315609E+01  5.942600000E+02  7.610544959E-01 
        61  1.110225324E-02 -1.650000050E-03  0.000000000E+00  2.172014861E-03  4.124170498E+01  5.942600177E+02  7.610545186E-01 
        62  1.129715473E-02 -1.650000051E-03  0.000000000E+00  2.172014861E-03  4.138897001E+01  5.942600177E+02  7.610545186E-01 
        63  1.153289457E-02 -1.649999949E-03  0.000000000E+00  2.172014732E-03  4.186060337E+01  5.942599823E+02  7.610544733E-01 
        64  1.172932302E-02 -1.649999996E-03  0.000000000E+00  2.172014797E-03  4.217716019E+01  5.942600000E+02  7.610544959E-01 
        65  1.189299876E-02 -1.650000052E-03  0.000000000E+00  2.172014861E-03  4.248296534E+01  5.942600177E+02  7.610545186E-01 
        66  1.202938442E-02 -1.649999949E-03  0.000000000E+00  2.172014732E-03  4.277504119E+01  5.942599823E+02  7.610544733E-01 
        67  1.214303390E-02 -1.650000044E-03  0.000000000E+00  2.172014861E-03  4.304044537E+01  5.942600177E+02  7.610545186E-01 
        68  1.223773642E-02 -1.650000012E-03  0.000000000E+00  2.172014797E-03  4.327052271E+01  5.942600000E+02  7.610544959E-01 
        69  1.231665286E-02 -1.650000046E-03  0.000000000E+00  2.172014861E-03  4.344779249E+01  5.942600177E+02  7.610545186E-01 
        70  1.238241385E-02 -1.649999998E-03  0.000000000E+00  4.470126403E-03  4.351807096E+01  5.942600177E+02  0.000000000E+00 
        71  1.110245300E-02 -1.649999996E-03  9.860657205E-04  2.151137912E-03  4.092207910E+01  5.942599999E+02  7.625664007E-01 
        72  1.129741118E-02 -1.649999994E-03  9.860237298E-04  2.150557407E-03  4.106046478E+01  5.942599999E+02  7.627341195E-01 
        73  1.038815708E-02 -1.649999987E-03  9.861987235E-04  2.153185080E-03  4.043016909E+01  5.942600000E+02  7.619775562E-01 
        74  8.805574705E-03 -1.650000021E-03  9.864727040E-04  2.153236012E-03  3.967833640E+01  5.942600088E+02  7.614299377E-01 
        75  9.485717905E-03 -1.650000014E-03  9.863583903E-04  2.153288650E-03  3.995271960E+01  5.942600000E+02  7.615752355E-01 
        76  9.996766092E-03 -1.649999943E-03  9.862710097E-04  2.153231878E-03  4.021984990E+01  5.942599823E+02  7.617996995E-01 
        77  7.730630904E-03 -1.650000039E-03  9.866502961E-04  2.153183090E-03  3.933129786E+01  5.942600133E+02  7.612909865E-01 
        78  8.091212126E-03 -1.649999999E-03  9.865892570E-04  2.153198517E-03  3.944053356E+01  5.942600000E+02  7.613302830E-01 
        79  8.598423723E-03 -1.649999983E-03  9.865066297E-04  2.153220772E-03  3.959781932E+01  5.942599911E+02  7.613869563E-01 
        80  1.153309208E-02 -1.650000032E-03  9.865404178E-04  2.147357400E-03  4.126914923E+01  5.942600088E+02  7.630569958E-01 
        81  7.573036225E-03 -1.650000030E-03  9.866765862E-04  2.153179234E-03  3.929264199E+01  5.942600088E+02  7.612807859E-01 
        82  5.783215100E-03 -1.650000004E-03  9.869826635E-04  2.153147097E-03  3.892481616E+01  5.942600000E+02  7.611962243E-01 
        83  6.035506259E-03 -1.649999949E-03  9.869375075E-04  2.153149856E-03  3.896437364E+01  5.942599823E+02  7.612027689E-01 
        84  6.236595952E-03 -1.650000002E-03  9.869024133E-04  2.153153015E-03  3.900238323E+01  5.942600000E+02  7.612107546E-01 
        85  6.880806203E-03 -1.649999944E-03  9.867931445E-04  2.153162733E-03  3.912824383E+01  5.942599823E+02  7.612365608E-01 
        86  1.172947215E-02 -1.650000029E-03  9.869723181E-04  2.141631351E-03  4.146648977E+01  5.942600088E+02  7.633794943E-01 
        87  4.832561986E-03 -1.649999941E-03  9.871570102E-04  2.153137814E-03  3.878741706E+01  5.942599823E+02  7.611745958E-01 
        88  5.159606270E-03 -1.650000004E-03  9.870976822E-04  2.153140571E-03  3.883098696E+01  5.942600000E+02  7.611809398E-01 
        89  3.947734035E-03 -1.649999955E-03  9.873277149E-04  2.153131106E-03  3.868785108E+01  5.942599823E+02  7.611610013E-01 
        90  4.232942892E-03 -1.649999946E-03  9.872707921E-04  2.153133105E-03  3.871593495E+01  5.942599823E+02  7.611644454E-01 
        91  1.189310817E-02 -1.649999954E-03  9.873330752E-04  2.131618107E-03  4.165283481E+01  5.942599822E+02  7.636805737E-01 
        92  2.914795121E-03 -1.649999999E-03  9.875323253E-04  2.153124593E-03  3.860182225E+01  5.942600000E+02  7.611508619E-01 
        93  3.058937451E-03 -1.650000039E-03  9.875036176E-04  2.153125456E-03  3.861103804E+01  5.942600133E+02  7.611518332E-01 
        94  3.121859929E-03 -1.649999985E-03  9.874906111E-04  2.153125779E-03  3.861575881E+01  5.942599956E+02  7.611523312E-01 
        95  1.285714191E-03 -1.649999950E-03  9.878538017E-04  2.153115930E-03  3.852122813E+01  5.942599823E+02  7.611422758E-01 
        96  1.816924899E-03 -1.650000049E-03  9.877480907E-04  2.153118681E-03  3.854055921E+01  5.942600177E+02  7.611445035E-01 
        97  2.170191834E-03 -1.650000044E-03  9.876810309E-04  2.153120467E-03  3.855735365E+01  5.942600177E+02  7.611462646E-01 
        98  1.202946298E-02 -1.649999953E-03  9.876343321E-04  2.113266489E-03  4.182415353E+01  5.942599822E+02  7.639004677E-01 
        99  1.214308635E-02 -1.649999988E-03  9.878858045E-04  2.084590651E-03  4.196994061E+01  5.942600000E+02  7.635685749E-01 
       100 -3.542577826E-04 -1.650000007E-03  9.881497301E-04  2.153109244E-03  3.849971506E+01  5.942600000E+02  7.611399665E-01 
       101  2.031021205E-04 -1.649999952E-03  9.880507533E-04  2.153111274E-03  3.849969761E+01  5.942599823E+02  7.611400271E-01 
       102  4.512136878E-04 -1.649999952E-03  9.880065915E-04  2.153112242E-03  3.850086052E+01  5.942599823E+02  7.611399700E-01 
       103  5.803136392E-04 -1.649999997E-03  9.879823968E-04  2.153112886E-03  3.850321865E+01  5.942600000E+02  7.611405232E-01 
       104  1.223776813E-02 -1.650000009E-03  9.880956075E-04  2.415514198E-03  4.208591710E+01  5.942600009E+02  7.565708051E-01 
       105 -1.968786396E-03 -1.649999951E-03  9.883890366E-04  2.153104790E-03  3.853903331E+01  5.942599823E+02  7.611455039E-01 
       106 -1.652977683E-03 -1.649999996E-03  9.883474365E-04  2.153105516E-03  3.852700185E+01  5.942600000E+02  7.611439993E-01 
       107 -1.155706233E-03 -1.649999999E-03  9.882811823E-04  2.153106682E-03  3.851224212E+01  5.942600000E+02  7.611418298E-01 
       108 -7.328599352E-04 -1.649999953E-03  9.882105507E-04  2.153107961E-03  3.850429409E+01  5.942599823E+02  7.611406308E-01 
       109  1.231666688E-02 -1.649999993E-03  9.882706246E-04  7.323998349E-03  4.216049146E+01  5.942600066E+02  7.064521012E-01 
       110 -1.238224737E-02 -1.650000051E-03  9.884166253E-04  8.515536687E-03  4.216538252E+01  5.942600613E+02  0.000000000E+00 
       111 -1.231697450E-02 -1.649999999E-03  9.884940960E-04  7.405789018E-03  4.215181956E+01  5.942600063E+02  7.083304298E-01 
       112 -2.327584992E-03 -1.649999952E-03  9.884358288E-04  2.153104170E-03  3.855738698E+01  5.942599823E+02  7.611476794E-01 
       113  1.238241434E-02 -1.650000051E-03  9.884166253E-04  8.439818169E-03  4.217207494E+01  5.942600614E+02  0.000000000E+00 
       114 -1.223864467E-02 -1.650000051E-03  9.885870638E-04  2.427832807E-03  4.207468485E+01  5.942600186E+02  7.566091307E-01 
       115 -1.214464338E-02 -1.649999994E-03  9.886984689E-04  2.080352152E-03  4.195764905E+01  5.942600000E+02  7.633818627E-01 
       116 -4.517199587E-03 -1.649999963E-03  9.887236864E-04  2.153102857E-03  3.873329416E+01  5.942599867E+02  7.611700415E-01 
       117 -4.414670316E-03 -1.650000033E-03  9.887104562E-04  2.153102860E-03  3.872221615E+01  5.942600133E+02  7.611684780E-01 
       118 -3.651595001E-03 -1.650000048E-03  9.886098026E-04  2.153102853E-03  3.864981466E+01  5.942600177E+02  7.611587624E-01 
       119 -3.094823677E-03 -1.650000049E-03  9.885372614E-04  2.153103197E-03  3.860491615E+01  5.942600177E+02  7.611532634E-01 
       120 -2.793029229E-03 -1.649999951E-03  9.884973581E-04  2.153103428E-03  3.858414769E+01  5.942599823E+02  7.611508071E-01 
       121 -1.203183536E-02 -1.650000008E-03  9.888320552E-04  2.110165049E-03  4.181193046E+01  5.942599999E+02  7.637282715E-01 
       122 -5.373331867E-03 -1.650000002E-03  9.888373881E-04  2.153104783E-03  3.884453921E+01  5.942600000E+02  7.611873152E-01 
       123 -4.706021831E-03 -1.649999978E-03  9.887486688E-04  2.153103278E-03  3.875706125E+01  5.942599911E+02  7.611737883E-01 
       124 -1.189645587E-02 -1.650000052E-03  9.889921867E-04  2.129865360E-03  4.164069793E+01  5.942600176E+02  7.635363195E-01 
       125 -5.769750150E-03 -1.650000058E-03  9.888914969E-04  2.153106611E-03  3.890571286E+01  5.942600177E+02  7.611981167E-01 
       126 -7.038392819E-03 -1.649999978E-03  9.890637268E-04  2.153117390E-03  3.914330833E+01  5.942599911E+02  7.612481017E-01 
       127 -6.777981764E-03 -1.650000004E-03  9.890279205E-04  2.153114849E-03  3.909081825E+01  5.942600000E+02  7.612367062E-01 
       128 -6.208507374E-03 -1.649999986E-03  9.889500532E-04  2.153109168E-03  3.897901945E+01  5.942600000E+02  7.612117463E-01 
       129 -1.173398426E-02 -1.649999973E-03  9.891839625E-04  2.140547161E-03  4.145415228E+01  5.942599911E+02  7.632631301E-01 
       130 -7.317166953E-03 -1.650000004E-03  9.891033433E-04  2.153122714E-03  3.921138156E+01  5.942600000E+02  7.612667919E-01 
       131 -8.713682192E-03 -1.650000053E-03  9.893002256E-04  2.153168870E-03  3.961877945E+01  5.942600177E+02  7.614059152E-01 
       132 -8.332633425E-03 -1.649999946E-03  9.892454469E-04  2.153153208E-03  3.949677519E+01  5.942599823E+02  7.613608391E-01 
       133 -7.874710432E-03 -1.649999955E-03  9.891805000E-04  2.153134723E-03  3.935540412E+01  5.942599823E+02  7.613076377E-01 
       134 -1.153899587E-02 -1.649999945E-03  9.894136741E-04  2.146644585E-03  4.125560715E+01  5.942599822E+02  7.629682170E-01 
       135 -9.733691370E-03 -1.650000000E-03  9.894490791E-04  2.153177809E-03  4.005391298E+01  5.942600000E+02  7.616675802E-01 
       136 -9.556210586E-03 -1.650000046E-03  9.894235574E-04  2.153219384E-03  3.995934926E+01  5.942600177E+02  7.615892943E-01 
       137 -9.266405885E-03 -1.650000050E-03  9.893819229E-04  2.153201586E-03  3.983977564E+01  5.942600177E+02  7.615244257E-01 
       138 -1.041736222E-02 -1.649999955E-03  9.895527119E-04  2.153027513E-03  4.042568259E+01  5.942599822E+02  7.619705681E-01 
       139 -1.130497527E-02 -1.649999952E-03  9.896886455E-04  2.150074779E-03  4.104464175E+01  5.942599822E+02  7.626708785E-01 
       140 -1.104863784E-02 -1.650000007E-03  9.896471749E-04  2.150934016E-03  4.086287057E+01  5.942599999E+02  7.624657131E-01 
       141  1.110265300E-02 -1.649999997E-03  1.972140752E-03  2.135616217E-03  4.013099993E+01  5.942600000E+02  7.639426468E-01 
       142  1.129766783E-02 -1.649999997E-03  1.972047450E-03  2.134138636E-03  4.019586252E+01  5.942600000E+02  7.642228391E-01 
       143  1.038834619E-02 -1.649999990E-03  1.972439484E-03  2.140833430E-03  3.989728160E+01  5.942600000E+02  7.629551310E-01 
       144  9.996815845E-03 -1.649999998E-03  1.972603110E-03  2.141093905E-03  3.977227590E+01  5.942600000E+02  7.626314216E-01 
       145  9.485811853E-03 -1.649999993E-03  1.972800993E-03  2.141412016E-03  3.961347035E+01  5.942600000E+02  7.622220058E-01 
       146  8.598398070E-03 -1.649999998E-03  1.973137196E-03  2.141335816E-03  3.936295696E+01  5.942600000E+02  7.618386394E-01 
       147  8.805409659E-03 -1.650000022E-03  1.973060752E-03  2.141352513E-03  3.941965702E+01  5.942600088E+02  7.619259310E-01 
       148  1.153328860E-02 -1.649999970E-03  1.973080771E-03  2.127015006E-03  4.026441030E+01  5.942599911E+02  7.647139240E-01 
       149  8.091608969E-03 -1.650000003E-03  1.973322042E-03  2.141298087E-03  3.924078074E+01  5.942600000E+02  7.617152629E-01 
       150  7.572601876E-03 -1.650000025E-03  1.973515861E-03  2.141264921E-03  3.912373589E+01  5.942600088E+02  7.616063546E-01 
       151  7.730469083E-03 -1.650000002E-03  1.973458047E-03  2.141271807E-03  3.915569817E+01  5.942600000E+02  7.616295254E-01 
