nodenumber     x-coordinate     y-coordinate     z-coordinate turb-kinetic-energy         pressure      temperature velocity-magnitude 
         1 -1.238224696E-02 -1.650000007E-03  0.000000000E+00  3.866478700E-03  3.854855180E+01  5.942600150E+02  0.000000000E+00 
         2 -1.231646687E-02 -1.649999949E-03  0.000000000E+00  1.830401675E-03  3.849011793E+01  5.942599823E+02  6.986466193E-01 
         3 -1.223752875E-02 -1.650000008E-03  0.000000000E+00  1.830401729E-03  3.834386183E+01  5.942600000E+02  6.986466402E-01 
         4 -1.214279805E-02 -1.649999951E-03  0.000000000E+00  1.830401675E-03  3.815429026E+01  5.942599823E+02  6.986466193E-01 
         5 -1.202911553E-02 -1.649999951E-03  0.000000000E+00  1.830401675E-03  3.793473046E+01  5.942599823E+02  6.986466193E-01 
         6 -1.189268779E-02 -1.650000001E-03  0.000000000E+00  1.830401729E-03  3.769183165E+01  5.942600000E+02  6.986466402E-01 
         7 -1.172896070E-02 -1.650000028E-03  0.000000000E+00  1.830401757E-03  3.743592750E+01  5.942600089E+02  6.986466506E-01 
         8 -1.153246726E-02 -1.649999968E-03  0.000000000E+00  1.830401702E-03  3.716975380E+01  5.942599911E+02  6.986466298E-01 
         9 -1.129664480E-02 -1.649999999E-03  0.000000000E+00  1.830401729E-03  3.677007352E+01  5.942600000E+02  6.986466402E-01 
        10 -1.104180182E-02 -1.649999952E-03  0.000000000E+00  1.830401675E-03  3.660479863E+01  5.942599823E+02  6.986466193E-01 
        11 -1.040965475E-02 -1.650000037E-03  0.000000000E+00  1.830401784E-03  3.620431923E+01  5.942600177E+02  6.986466610E-01 
        12 -9.727797567E-03 -1.649999974E-03  0.000000000E+00  1.830401702E-03  3.580774549E+01  5.942599911E+02  6.986466298E-01 
        13 -9.549135039E-03 -1.650000016E-03  0.000000000E+00  1.830401757E-03  3.570517277E+01  5.942600089E+02  6.986466506E-01 
        14 -9.257402967E-03 -1.649999996E-03  0.000000000E+00  1.830401729E-03  3.558556047E+01  5.942600000E+02  6.986466402E-01 
        15 -8.707201624E-03 -1.650000004E-03  0.000000000E+00  1.830401729E-03  3.536571233E+01  5.942600000E+02  6.986466402E-01 
        16 -8.327874969E-03 -1.650000002E-03  0.000000000E+00  1.830401729E-03  3.524693209E+01  5.942600000E+02  6.986466402E-01 
        17 -7.868819436E-03 -1.650000009E-03  0.000000000E+00  1.830401729E-03  3.510746454E+01  5.942600000E+02  6.986466402E-01 
        18 -7.309914944E-03 -1.650000005E-03  0.000000000E+00  1.830401729E-03  3.496987474E+01  5.942600000E+02  6.986466402E-01 
        19 -7.033056079E-03 -1.649999952E-03  0.000000000E+00  1.830401675E-03  3.490574872E+01  5.942599823E+02  6.986466193E-01 
        20 -6.774404682E-03 -1.650000049E-03  0.000000000E+00  1.830401784E-03  3.485744415E+01  5.942600177E+02  6.986466610E-01 
        21 -6.203718579E-03 -1.649999993E-03  0.000000000E+00  1.830401729E-03  3.475464836E+01  5.942600000E+02  6.986466402E-01 
        22 -5.764059055E-03 -1.650000057E-03  0.000000000E+00  1.830401784E-03  3.468577828E+01  5.942600177E+02  6.986466610E-01 
        23 -5.369046210E-03 -1.650000008E-03  0.000000000E+00  1.830401729E-03  3.462918098E+01  5.942600000E+02  6.986466402E-01 
        24 -4.703991919E-03 -1.649999998E-03  0.000000000E+00  1.830401729E-03  3.454825665E+01  5.942600000E+02  6.986466402E-01 
        25 -4.513416810E-03 -1.649999963E-03  0.000000000E+00  1.830401688E-03  3.452591549E+01  5.942599867E+02  6.986466245E-01 
        26 -4.409949101E-03 -1.650000002E-03  0.000000000E+00  1.830401729E-03  3.451558149E+01  5.942600000E+02  6.986466402E-01 
        27 -3.648226494E-03 -1.649999989E-03  0.000000000E+00  1.830401729E-03  3.444844578E+01  5.942600000E+02  6.986466402E-01 
        28 -3.090814824E-03 -1.649999990E-03  0.000000000E+00  1.830401729E-03  3.440607265E+01  5.942600000E+02  6.986466402E-01 
        29 -2.790049428E-03 -1.649999975E-03  0.000000000E+00  1.830401702E-03  3.438666835E+01  5.942599911E+02  6.986466298E-01 
        30 -2.326109559E-03 -1.650000046E-03  0.000000000E+00  1.830401784E-03  3.436199901E+01  5.942600177E+02  6.986466610E-01 
        31 -1.966101120E-03 -1.650000005E-03  0.000000000E+00  1.830401729E-03  3.434487805E+01  5.942600000E+02  6.986466402E-01 
        32 -1.649288649E-03 -1.650000004E-03  0.000000000E+00  1.830401729E-03  3.433379978E+01  5.942600000E+02  6.986466402E-01 
        33 -1.153324779E-03 -1.650000049E-03  0.000000000E+00  1.830401784E-03  3.432043547E+01  5.942600177E+02  6.986466610E-01 
        34 -7.314993435E-04 -1.649999992E-03  0.000000000E+00  1.830401729E-03  3.431278886E+01  5.942600000E+02  6.986466402E-01 
        35 -3.521276869E-04 -1.650000043E-03  0.000000000E+00  1.830401784E-03  3.430834407E+01  5.942600177E+02  6.986466610E-01 
        36  2.062356178E-04 -1.650000004E-03  0.000000000E+00  1.830401729E-03  3.430751813E+01  5.942600000E+02  6.986466402E-01 
        37  4.531226353E-04 -1.649999970E-03  0.000000000E+00  1.830401702E-03  3.430832077E+01  5.942599911E+02  6.986466298E-01 
        38  5.816147412E-04 -1.650000031E-03  0.000000000E+00  1.830401757E-03  3.431026180E+01  5.942600089E+02  6.986466506E-01 
        39  1.287381078E-03 -1.649999940E-03  0.000000000E+00  1.830401675E-03  3.432616617E+01  5.942599823E+02  6.986466193E-01 
        40  1.817906072E-03 -1.650000045E-03  0.000000000E+00  1.830401784E-03  3.434307658E+01  5.942600177E+02  6.986466610E-01 
        41  2.171618469E-03 -1.649999958E-03  0.000000000E+00  1.830401675E-03  3.435791881E+01  5.942599823E+02  6.986466193E-01 
        42  2.917015337E-03 -1.650000026E-03  0.000000000E+00  1.830401757E-03  3.439779497E+01  5.942600089E+02  6.986466506E-01 
        43  3.060138752E-03 -1.649999982E-03  0.000000000E+00  1.830401709E-03  3.440598998E+01  5.942599934E+02  6.986466324E-01 
        44  3.122627803E-03 -1.650000012E-03  0.000000000E+00  1.830401743E-03  3.441030893E+01  5.942600044E+02  6.986466454E-01 
        45  3.948750735E-03 -1.649999946E-03  0.000000000E+00  1.830401675E-03  3.447624806E+01  5.942599823E+02  6.986466193E-01 
        46  4.233552192E-03 -1.650000005E-03  0.000000000E+00  1.830401729E-03  3.450077270E+01  5.942600000E+02  6.986466402E-01 
        47  4.833507872E-03 -1.649999945E-03  0.000000000E+00  1.830401675E-03  3.456404492E+01  5.942599823E+02  6.986466193E-01 
        48  5.160210487E-03 -1.649999946E-03  0.000000000E+00  1.830401675E-03  3.460307728E+01  5.942599823E+02  6.986466193E-01 
        49  5.783248106E-03 -1.650000052E-03  0.000000000E+00  1.830401784E-03  3.469131888E+01  5.942600177E+02  6.986466610E-01 
        50  6.035984549E-03 -1.649999976E-03  0.000000000E+00  1.830401702E-03  3.472918337E+01  5.942599911E+02  6.986466298E-01 
        51  6.237400109E-03 -1.650000022E-03  0.000000000E+00  1.830401757E-03  3.476374517E+01  5.942600089E+02  6.986466506E-01 
        52  6.881112835E-03 -1.650000056E-03  0.000000000E+00  1.830401784E-03  3.487942107E+01  5.942600177E+02  6.986466610E-01 
        53  7.573470319E-03 -1.649999997E-03  0.000000000E+00  1.830401729E-03  3.503283691E+01  5.942600000E+02  6.986466402E-01 
        54  7.730792309E-03 -1.650000003E-03  0.000000000E+00  1.830401729E-03  3.506891648E+01  5.942600000E+02  6.986466402E-01 
        55  8.090815089E-03 -1.650000001E-03  0.000000000E+00  1.830401729E-03  3.517399600E+01  5.942600000E+02  6.986466402E-01 
        56  8.598449542E-03 -1.650000003E-03  0.000000000E+00  1.830401729E-03  3.532577324E+01  5.942600000E+02  6.986466402E-01 
        57  8.805739513E-03 -1.650000003E-03  0.000000000E+00  1.830401729E-03  3.540690353E+01  5.942600000E+02  6.986466402E-01 
        58  9.485623847E-03 -1.649999997E-03  0.000000000E+00  1.830401729E-03  3.568327588E+01  5.942600000E+02  6.986466402E-01 
        59  9.996717122E-03 -1.650000053E-03  0.000000000E+00  1.830401784E-03  3.597206221E+01  5.942600177E+02  6.986466610E-01 
        60  1.038796781E-02 -1.650000000E-03  0.000000000E+00  1.830401729E-03  3.620296652E+01  5.942600000E+02  6.986466402E-01 
        61  1.110225324E-02 -1.650000050E-03  0.000000000E+00  1.830401784E-03  3.666077701E+01  5.942600177E+02  6.986466610E-01 
        62  1.129715473E-02 -1.650000051E-03  0.000000000E+00  1.830401784E-03  3.678833724E+01  5.942600177E+02  6.986466610E-01 
        63  1.153289457E-02 -1.649999949E-03  0.000000000E+00  1.830401675E-03  3.719689384E+01  5.942599823E+02  6.986466193E-01 
        64  1.172932302E-02 -1.649999996E-03  0.000000000E+00  1.830401729E-03  3.747121807E+01  5.942600000E+02  6.986466402E-01 
        65  1.189299876E-02 -1.650000052E-03  0.000000000E+00  1.830401784E-03  3.773629983E+01  5.942600177E+02  6.986466610E-01 
        66  1.202938442E-02 -1.649999949E-03  0.000000000E+00  1.830401675E-03  3.798939929E+01  5.942599823E+02  6.986466193E-01 
        67  1.214303390E-02 -1.650000044E-03  0.000000000E+00  1.830401784E-03  3.821904377E+01  5.942600177E+02  6.986466610E-01 
        68  1.223773642E-02 -1.650000012E-03  0.000000000E+00  1.830401729E-03  3.841779168E+01  5.942600000E+02  6.986466402E-01 
        69  1.231665286E-02 -1.650000046E-03  0.000000000E+00  1.830401784E-03  3.857105965E+01  5.942600177E+02  6.986466610E-01 
        70  1.238241385E-02 -1.649999998E-03  0.000000000E+00  3.841274584E-03  3.863194945E+01  5.942600150E+02  0.000000000E+00 
        71  1.110245300E-02 -1.649999996E-03  9.860657205E-04  1.812821560E-03  3.638395127E+01  5.942599999E+02  7.000737860E-01 
        72  1.129741118E-02 -1.649999994E-03  9.860237298E-04  1.812330398E-03  3.650380297E+01  5.942599999E+02  7.002322261E-01 
        73  1.038815708E-02 -1.649999987E-03  9.861987235E-04  1.814553265E-03  3.595793704E+01  5.942600000E+02  6.995175051E-01 
        74  8.805574705E-03 -1.650000021E-03  9.864727040E-04  1.814584909E-03  3.530629532E+01  5.942600088E+02  6.990007582E-01 
        75  9.485717905E-03 -1.650000014E-03  9.863583903E-04  1.814632332E-03  3.554427082E+01  5.942600000E+02  6.991377299E-01 
        76  9.996766092E-03 -1.649999943E-03  9.862710097E-04  1.814589036E-03  3.577571008E+01  5.942599823E+02  6.993496167E-01 
        77  7.730630904E-03 -1.650000039E-03  9.866502961E-04  1.814537793E-03  3.500503926E+01  5.942600133E+02  6.988699588E-01 
        78  8.091212126E-03 -1.649999999E-03  9.865892570E-04  1.814551458E-03  3.509988894E+01  5.942600000E+02  6.989069267E-01 
        79  8.598423723E-03 -1.649999983E-03  9.865066297E-04  1.814571177E-03  3.523646987E+01  5.942599911E+02  6.989602402E-01 
        80  1.153309208E-02 -1.650000032E-03  9.865404178E-04  1.809602290E-03  3.668455594E+01  5.942600088E+02  7.005374313E-01 
        81  7.573036225E-03 -1.650000030E-03  9.866765862E-04  1.814534392E-03  3.497143045E+01  5.942600088E+02  6.988603850E-01 
        82  5.783215100E-03 -1.650000004E-03  9.869826635E-04  1.814506105E-03  3.465152268E+01  5.942600000E+02  6.987811008E-01 
        83  6.035506259E-03 -1.649999949E-03  9.869375075E-04  1.814508526E-03  3.468595079E+01  5.942599823E+02  6.987872206E-01 
        84  6.236595952E-03 -1.650000002E-03  9.869024133E-04  1.814511300E-03  3.471901293E+01  5.942600000E+02  6.987947007E-01 
        85  6.880806203E-03 -1.649999944E-03  9.867931445E-04  1.814519849E-03  3.482852830E+01  5.942599823E+02  6.988188714E-01 
        86  1.172947215E-02 -1.650000029E-03  9.869723181E-04  1.804706945E-03  3.685557189E+01  5.942600088E+02  7.008424225E-01 
        87  4.832561986E-03 -1.649999941E-03  9.871570102E-04  1.814497992E-03  3.453193674E+01  5.942599823E+02  6.987608795E-01 
        88  5.159606270E-03 -1.650000004E-03  9.870976822E-04  1.814500395E-03  3.456986982E+01  5.942600000E+02  6.987668097E-01 
        89  3.947734035E-03 -1.649999955E-03  9.873277149E-04  1.814492159E-03  3.444533589E+01  5.942599823E+02  6.987481786E-01 
        90  4.232942892E-03 -1.649999946E-03  9.872707921E-04  1.814493893E-03  3.446974937E+01  5.942599823E+02  6.987513939E-01 
        91  1.189310817E-02 -1.649999954E-03  9.873330752E-04  1.796112393E-03  3.701706801E+01  5.942599822E+02  7.011272691E-01 
        92  2.914795121E-03 -1.649999999E-03  9.875323253E-04  1.814486530E-03  3.437065969E+01  5.942600000E+02  6.987387096E-01 
        93  3.058937451E-03 -1.650000039E-03  9.875036176E-04  1.814487270E-03  3.437863408E+01  5.942600133E+02  6.987396169E-01 
        94  3.121859929E-03 -1.649999985E-03  9.874906111E-04  1.814487550E-03  3.438272809E+01  5.942599956E+02  6.987400820E-01 
        95  1.285714191E-03 -1.649999950E-03  9.878538017E-04  1.814479118E-03  3.430125353E+01  5.942599823E+02  6.987306798E-01 
        96  1.816924899E-03 -1.650000049E-03  9.877480907E-04  1.814481459E-03  3.431777913E+01  5.942600177E+02  6.987327716E-01 
        97  2.170191834E-03 -1.650000044E-03  9.876810309E-04  1.814482986E-03  3.433222694E+01  5.942600177E+02  6.987344131E-01 
        98  1.202946298E-02 -1.649999953E-03  9.876343321E-04  1.780279446E-03  3.716542489E+01  5.942599822E+02  7.013346050E-01 
        99  1.214308635E-02 -1.649999988E-03  9.878858045E-04  1.756353428E-03  3.729147194E+01  5.942600000E+02  7.010075249E-01 
       100 -3.542577826E-04 -1.650000007E-03  9.881497301E-04  1.814473476E-03  3.428384743E+01  5.942600000E+02  6.987285194E-01 
       101  2.031021205E-04 -1.649999952E-03  9.880507533E-04  1.814475177E-03  3.428331263E+01  5.942599823E+02  6.987285762E-01 
       102  4.512136878E-04 -1.649999952E-03  9.880065915E-04  1.814475991E-03  3.428410293E+01  5.942599823E+02  6.987284936E-01 
       103  5.803136392E-04 -1.649999997E-03  9.879823968E-04  1.814476535E-03  3.428605954E+01  5.942600000E+02  6.987290355E-01 
       104  1.223776813E-02 -1.650000009E-03  9.880956075E-04  2.061015705E-03  3.739155227E+01  5.942600008E+02  6.943352474E-01 
       105 -1.968786396E-03 -1.649999951E-03  9.883890366E-04  1.814469816E-03  3.432001339E+01  5.942599823E+02  6.987336929E-01 
       106 -1.652977683E-03 -1.649999996E-03  9.883474365E-04  1.814470403E-03  3.430912151E+01  5.942600000E+02  6.987323067E-01 
       107 -1.155706233E-03 -1.649999999E-03  9.882811823E-04  1.814471353E-03  3.429564177E+01  5.942600000E+02  6.987303260E-01 
       108 -7.328599352E-04 -1.649999953E-03  9.882105507E-04  1.814472410E-03  3.428824167E+01  5.942599823E+02  6.987291596E-01 
       109  1.231666688E-02 -1.649999993E-03  9.882706246E-04  6.330398504E-03  3.745593004E+01  5.942600057E+02  6.471926100E-01 
       110 -1.238224737E-02 -1.650000051E-03  9.884166253E-04  7.366071927E-03  3.747267715E+01  5.942600546E+02  0.000000000E+00 
       111 -1.231697450E-02 -1.649999999E-03  9.884940960E-04  6.402034820E-03  3.746093745E+01  5.942600055E+02  6.489336545E-01 
       112 -2.327584992E-03 -1.649999952E-03  9.884358288E-04  1.814469329E-03  3.433651166E+01  5.942599823E+02  6.987357008E-01 
       113  1.238241434E-02 -1.650000051E-03  9.884166253E-04  7.299765294E-03  3.746593397E+01  5.942600546E+02  0.000000000E+00 
       114 -1.223864467E-02 -1.650000051E-03  9.885870638E-04  2.072392295E-03  3.739431944E+01  5.942600185E+02  6.943720899E-01 
       115 -1.214464338E-02 -1.649999994E-03  9.886984689E-04  1.752882647E-03  3.729343346E+01  5.942600000E+02  7.008331547E-01 
       116 -4.517199587E-03 -1.649999963E-03  9.887236864E-04  1.814468565E-03  3.449323305E+01  5.942599867E+02  6.987563630E-01 
       117 -4.414670316E-03 -1.650000033E-03  9.887104562E-04  1.814468544E-03  3.448341467E+01  5.942600133E+02  6.987549177E-01 
       118 -3.651595001E-03 -1.650000048E-03  9.886098026E-04  1.814468397E-03  3.441907814E+01  5.942600177E+02  6.987459382E-01 
       119 -3.094823677E-03 -1.650000049E-03  9.885372614E-04  1.814468600E-03  3.437907610E+01  5.942600177E+02  6.987408557E-01 
       120 -2.793029229E-03 -1.649999951E-03  9.884973581E-04  1.814468755E-03  3.436051090E+01  5.942599823E+02  6.987385849E-01 
       121 -1.203183536E-02 -1.650000008E-03  9.888320552E-04  1.777593069E-03  3.716734030E+01  5.942599999E+02  7.011715379E-01 
       122 -5.373331867E-03 -1.650000002E-03  9.888373881E-04  1.814470425E-03  3.459157994E+01  5.942600000E+02  6.987723274E-01 
       123 -4.706021831E-03 -1.649999978E-03  9.887486688E-04  1.814468971E-03  3.451424767E+01  5.942599911E+02  6.987598252E-01 
       124 -1.189645587E-02 -1.650000052E-03  9.889921867E-04  1.794597209E-03  3.701911287E+01  5.942600176E+02  7.009919495E-01 
       125 -5.769750150E-03 -1.650000058E-03  9.888914969E-04  1.814472105E-03  3.464549676E+01  5.942600177E+02  6.987823151E-01 
       126 -7.038392819E-03 -1.649999978E-03  9.890637268E-04  1.814481805E-03  3.485415941E+01  5.942599911E+02  6.988286972E-01 
       127 -6.777981764E-03 -1.650000004E-03  9.890279205E-04  1.814479526E-03  3.480810137E+01  5.942600000E+02  6.988181186E-01 
       128 -6.208507374E-03 -1.649999986E-03  9.889500532E-04  1.814474441E-03  3.471001883E+01  5.942600000E+02  6.987949360E-01 
       129 -1.173398426E-02 -1.649999973E-03  9.891839625E-04  1.803772061E-03  3.685746546E+01  5.942599911E+02  7.007343872E-01 
       130 -7.317166953E-03 -1.650000004E-03  9.891033433E-04  1.814486524E-03  3.491366286E+01  5.942600000E+02  6.988461379E-01 
       131 -8.713682192E-03 -1.650000053E-03  9.893002256E-04  1.814527453E-03  3.526872500E+01  5.942600177E+02  6.989766161E-01 
       132 -8.332633425E-03 -1.649999946E-03  9.892454469E-04  1.814513568E-03  3.516252338E+01  5.942599823E+02  6.989342793E-01 
       133 -7.874710432E-03 -1.649999955E-03  9.891805000E-04  1.814497165E-03  3.503946798E+01  5.942599823E+02  6.988842934E-01 
       134 -1.153899587E-02 -1.649999945E-03  9.894136741E-04  1.808988609E-03  3.668550345E+01  5.942599822E+02  7.004558989E-01 
       135 -9.733691370E-03 -1.650000000E-03  9.894490791E-04  1.814539924E-03  3.564598132E+01  5.942600000E+02  6.992240473E-01 
       136 -9.556210586E-03 -1.650000046E-03  9.894235574E-04  1.814573584E-03  3.556415040E+01  5.942600177E+02  6.991498614E-01 
       137 -9.266405885E-03 -1.650000050E-03  9.893819229E-04  1.814557316E-03  3.546043869E+01  5.942600177E+02  6.990885704E-01 
       138 -1.041736222E-02 -1.649999955E-03  9.895527119E-04  1.814418692E-03  3.596769365E+01  5.942599823E+02  6.995111568E-01 
       139 -1.130497527E-02 -1.649999952E-03  9.896886455E-04  1.811915542E-03  3.650293905E+01  5.942599822E+02  7.001746739E-01 
       140 -1.104863784E-02 -1.650000007E-03  9.896471749E-04  1.812643930E-03  3.634575618E+01  5.942599999E+02  6.999802791E-01 
       141  1.110265300E-02 -1.649999997E-03  1.972140752E-03  1.799722809E-03  3.569874864E+01  5.942600000E+02  7.013720731E-01 
       142  1.129766783E-02 -1.649999997E-03  1.972047450E-03  1.798468305E-03  3.575482873E+01  5.942600000E+02  7.016367500E-01 
       143  1.038834619E-02 -1.649999990E-03  1.972439484E-03  1.804151897E-03  3.549668695E+01  5.942600000E+02  7.004392275E-01 
       144  9.996815845E-03 -1.649999998E-03  1.972603110E-03  1.804367758E-03  3.538834999E+01  5.942600000E+02  7.001337322E-01 
       145  9.485811853E-03 -1.649999993E-03  1.972800993E-03  1.804631286E-03  3.525072930E+01  5.942600000E+02  6.997473576E-01 
       146  8.598398070E-03 -1.649999998E-03  1.973137196E-03  1.804560973E-03  3.503312549E+01  5.942600000E+02  6.993862380E-01 
       147  8.805409659E-03 -1.650000022E-03  1.973060752E-03  1.804576408E-03  3.508237156E+01  5.942600088E+02  6.994684624E-01 
       148  1.153328860E-02 -1.649999970E-03  1.973080771E-03  1.792394153E-03  3.581396776E+01  5.942599911E+02  7.021010395E-01 
       149  8.091608969E-03 -1.650000003E-03  1.973322042E-03  1.804527575E-03  3.492680431E+01  5.942600000E+02  6.992703076E-01 
       150  7.572601876E-03 -1.650000025E-03  1.973515861E-03  1.804498263E-03  3.482491686E+01  5.942600088E+02  6.991680213E-01 
       151  7.730469083E-03 -1.650000002E-03  1.973458047E-03  1.804504322E-03  3.485277033E+01  5.942600000E+02  6.991897442E-01 
