nodenumber     x-coordinate     y-coordinate     z-coordinate turb-kinetic-energy         pressure      temperature velocity-magnitude 
         1 -1.238224696E-02 -1.650000007E-03  0.000000000E+00  4.453979959E-03  4.306209354E+01  5.942600175E+02  0.000000000E+00 
         2 -1.231646687E-02 -1.649999949E-03  0.000000000E+00  2.147716537E-03  4.299534281E+01  5.942599823E+02  7.567855660E-01 
         3 -1.223752875E-02 -1.650000008E-03  0.000000000E+00  2.147716601E-03  4.282799771E+01  5.942600000E+02  7.567855885E-01 
         4 -1.214279805E-02 -1.649999951E-03  0.000000000E+00  2.147716537E-03  4.261083762E+01  5.942599823E+02  7.567855660E-01 
         5 -1.202911553E-02 -1.649999951E-03  0.000000000E+00  2.147716537E-03  4.235962042E+01  5.942599823E+02  7.567855660E-01 
         6 -1.189268779E-02 -1.650000001E-03  0.000000000E+00  2.147716601E-03  4.208212168E+01  5.942600000E+02  7.567855885E-01 
         7 -1.172896070E-02 -1.650000028E-03  0.000000000E+00  2.147716633E-03  4.178989587E+01  5.942600089E+02  7.567855998E-01 
         8 -1.153246726E-02 -1.649999968E-03  0.000000000E+00  2.147716569E-03  4.148588100E+01  5.942599911E+02  7.567855773E-01 
         9 -1.129664480E-02 -1.649999999E-03  0.000000000E+00  2.147716601E-03  4.102910222E+01  5.942600000E+02  7.567855885E-01 
        10 -1.104180182E-02 -1.649999952E-03  0.000000000E+00  2.147716537E-03  4.084013248E+01  5.942599823E+02  7.567855660E-01 
        11 -1.040965475E-02 -1.650000037E-03  0.000000000E+00  2.147716665E-03  4.038226075E+01  5.942600177E+02  7.567856111E-01 
        12 -9.727797567E-03 -1.649999974E-03  0.000000000E+00  2.147716569E-03  3.992885323E+01  5.942599911E+02  7.567855773E-01 
        13 -9.549135039E-03 -1.650000016E-03  0.000000000E+00  2.147716633E-03  3.981158463E+01  5.942600089E+02  7.567855998E-01 
        14 -9.257402967E-03 -1.649999996E-03  0.000000000E+00  2.147716601E-03  3.967499223E+01  5.942600000E+02  7.567855885E-01 
        15 -8.707201624E-03 -1.650000004E-03  0.000000000E+00  2.147716601E-03  3.942396423E+01  5.942600000E+02  7.567855885E-01 
        16 -8.327874969E-03 -1.650000002E-03  0.000000000E+00  2.147716601E-03  3.928866539E+01  5.942600000E+02  7.567855885E-01 
        17 -7.868819436E-03 -1.650000009E-03  0.000000000E+00  2.147716601E-03  3.912980078E+01  5.942600000E+02  7.567855885E-01 
        18 -7.309914944E-03 -1.650000005E-03  0.000000000E+00  2.147716601E-03  3.897353458E+01  5.942600000E+02  7.567855885E-01 
        19 -7.033056079E-03 -1.649999952E-03  0.000000000E+00  2.147716537E-03  3.890074664E+01  5.942599823E+02  7.567855660E-01 
        20 -6.774404682E-03 -1.650000049E-03  0.000000000E+00  2.147716665E-03  3.884610324E+01  5.942600177E+02  7.567856111E-01 
        21 -6.203718579E-03 -1.649999993E-03  0.000000000E+00  2.147716601E-03  3.872979798E+01  5.942600000E+02  7.567855885E-01 
        22 -5.764059055E-03 -1.650000057E-03  0.000000000E+00  2.147716665E-03  3.865210842E+01  5.942600177E+02  7.567856111E-01 
        23 -5.369046210E-03 -1.650000008E-03  0.000000000E+00  2.147716601E-03  3.858834595E+01  5.942600000E+02  7.567855885E-01 
        24 -4.703991919E-03 -1.649999998E-03  0.000000000E+00  2.147716601E-03  3.849743741E+01  5.942600000E+02  7.567855885E-01 
        25 -4.513416810E-03 -1.649999963E-03  0.000000000E+00  2.147716553E-03  3.847234287E+01  5.942599867E+02  7.567855716E-01 
        26 -4.409949101E-03 -1.650000002E-03  0.000000000E+00  2.147716601E-03  3.846076120E+01  5.942600000E+02  7.567855885E-01 
        27 -3.648226494E-03 -1.649999989E-03  0.000000000E+00  2.147716601E-03  3.838570715E+01  5.942600000E+02  7.567855885E-01 
        28 -3.090814824E-03 -1.649999990E-03  0.000000000E+00  2.147716601E-03  3.833845175E+01  5.942600000E+02  7.567855885E-01 
        29 -2.790049428E-03 -1.649999975E-03  0.000000000E+00  2.147716569E-03  3.831688053E+01  5.942599911E+02  7.567855773E-01 
        30 -2.326109559E-03 -1.650000046E-03  0.000000000E+00  2.147716665E-03  3.828953951E+01  5.942600177E+02  7.567856111E-01 
        31 -1.966101120E-03 -1.650000005E-03  0.000000000E+00  2.147716601E-03  3.827060466E+01  5.942600000E+02  7.567855885E-01 
        32 -1.649288649E-03 -1.650000004E-03  0.000000000E+00  2.147716601E-03  3.825843371E+01  5.942600000E+02  7.567855885E-01 
        33 -1.153324779E-03 -1.650000049E-03  0.000000000E+00  2.147716665E-03  3.824387641E+01  5.942600177E+02  7.567856111E-01 
        34 -7.314993435E-04 -1.649999992E-03  0.000000000E+00  2.147716601E-03  3.823567790E+01  5.942600000E+02  7.567855885E-01 
        35 -3.521276869E-04 -1.650000043E-03  0.000000000E+00  2.147716665E-03  3.823104360E+01  5.942600177E+02  7.567856111E-01 
        36  2.062356178E-04 -1.650000004E-03  0.000000000E+00  2.147716601E-03  3.823063659E+01  5.942600000E+02  7.567855885E-01 
        37  4.531226353E-04 -1.649999970E-03  0.000000000E+00  2.147716569E-03  3.823177234E+01  5.942599911E+02  7.567855773E-01 
        38  5.816147412E-04 -1.650000031E-03  0.000000000E+00  2.147716633E-03  3.823408121E+01  5.942600089E+02  7.567855998E-01 
        39  1.287381078E-03 -1.649999940E-03  0.000000000E+00  2.147716537E-03  3.825267996E+01  5.942599823E+02  7.567855660E-01 
        40  1.817906072E-03 -1.650000045E-03  0.000000000E+00  2.147716665E-03  3.827224636E+01  5.942600177E+02  7.567856111E-01 
        41  2.171618469E-03 -1.649999958E-03  0.000000000E+00  2.147716537E-03  3.828931789E+01  5.942599823E+02  7.567855660E-01 
        42  2.917015337E-03 -1.650000026E-03  0.000000000E+00  2.147716633E-03  3.833499273E+01  5.942600089E+02  7.567855998E-01 
        43  3.060138752E-03 -1.649999982E-03  0.000000000E+00  2.147716577E-03  3.834436937E+01  5.942599934E+02  7.567855801E-01 
        44  3.122627803E-03 -1.650000012E-03  0.000000000E+00  2.147716617E-03  3.834930035E+01  5.942600044E+02  7.567855942E-01 
        45  3.948750735E-03 -1.649999946E-03  0.000000000E+00  2.147716537E-03  3.842449809E+01  5.942599823E+02  7.567855660E-01 
        46  4.233552192E-03 -1.650000005E-03  0.000000000E+00  2.147716601E-03  3.845244375E+01  5.942600000E+02  7.567855885E-01 
        47  4.833507872E-03 -1.649999945E-03  0.000000000E+00  2.147716537E-03  3.852449863E+01  5.942599823E+02  7.567855660E-01 
        48  5.160210487E-03 -1.649999946E-03  0.000000000E+00  2.147716537E-03  3.856892012E+01  5.942599823E+02  7.567855660E-01 
        49  5.783248106E-03 -1.650000052E-03  0.000000000E+00  2.147716665E-03  3.866939620E+01  5.942600177E+02  7.567856111E-01 
        50  6.035984549E-03 -1.649999976E-03  0.000000000E+00  2.147716569E-03  3.871250679E+01  5.942599911E+02  7.567855773E-01 
        51  6.237400109E-03 -1.650000022E-03  0.000000000E+00  2.147716633E-03  3.875188283E+01  5.942600089E+02  7.567855998E-01 
        52  6.881112835E-03 -1.650000056E-03  0.000000000E+00  2.147716665E-03  3.888363072E+01  5.942600177E+02  7.567856111E-01 
        53  7.573470319E-03 -1.649999997E-03  0.000000000E+00  2.147716601E-03  3.905854338E+01  5.942600000E+02  7.567855885E-01 
        54  7.730792309E-03 -1.650000003E-03  0.000000000E+00  2.147716601E-03  3.909967006E+01  5.942600000E+02  7.567855885E-01 
        55  8.090815089E-03 -1.650000001E-03  0.000000000E+00  2.147716601E-03  3.921959359E+01  5.942600000E+02  7.567855885E-01 
        56  8.598449542E-03 -1.650000003E-03  0.000000000E+00  2.147716601E-03  3.939280251E+01  5.942600000E+02  7.567855885E-01 
        57  8.805739513E-03 -1.650000003E-03  0.000000000E+00  2.147716601E-03  3.948549156E+01  5.942600000E+02  7.567855885E-01 
        58  9.485623847E-03 -1.649999997E-03  0.000000000E+00  2.147716601E-03  3.980121118E+01  5.942600000E+02  7.567855885E-01 
        59  9.996717122E-03 -1.650000053E-03  0.000000000E+00  2.147716665E-03  4.013137267E+01  5.942600177E+02  7.567856111E-01 
        60  1.038796781E-02 -1.650000000E-03  0.000000000E+00  2.147716601E-03  4.039535230E+01  5.942600000E+02  7.567855885E-01 
        61  1.110225324E-02 -1.650000050E-03  0.000000000E+00  2.147716665E-03  4.091889625E+01  5.942600177E+02  7.567856111E-01 
        62  1.129715473E-02 -1.650000051E-03  0.000000000E+00  2.147716665E-03  4.106476724E+01  5.942600177E+02  7.567856111E-01 
        63  1.153289457E-02 -1.649999949E-03  0.000000000E+00  2.147716537E-03  4.153195225E+01  5.942599823E+02  7.567855660E-01 
        64  1.172932302E-02 -1.649999996E-03  0.000000000E+00  2.147716601E-03  4.184553576E+01  5.942600000E+02  7.567855885E-01 
        65  1.189299876E-02 -1.650000052E-03  0.000000000E+00  2.147716665E-03  4.214847545E+01  5.942600177E+02  7.567856111E-01 
        66  1.202938442E-02 -1.649999949E-03  0.000000000E+00  2.147716537E-03  4.243780946E+01  5.942599823E+02  7.567855660E-01 
        67  1.214303390E-02 -1.650000044E-03  0.000000000E+00  2.147716665E-03  4.270069746E+01  5.942600177E+02  7.567856111E-01 
        68  1.223773642E-02 -1.650000012E-03  0.000000000E+00  2.147716601E-03  4.292856943E+01  5.942600000E+02  7.567855885E-01 
        69  1.231665286E-02 -1.650000046E-03  0.000000000E+00  2.147716665E-03  4.310415049E+01  5.942600177E+02  7.567856111E-01 
        70  1.238241385E-02 -1.649999998E-03  0.000000000E+00  4.425737011E-03  4.317376891E+01  5.942600175E+02  0.000000000E+00 
        71  1.110245300E-02 -1.649999996E-03  9.860657205E-04  2.127074293E-03  4.060225395E+01  5.942599999E+02  7.582918013E-01 
        72  1.129741118E-02 -1.649999994E-03  9.860237298E-04  2.126500142E-03  4.073932451E+01  5.942599999E+02  7.584588930E-01 
        73  1.038815708E-02 -1.649999987E-03  9.861987235E-04  2.129099024E-03  4.011502005E+01  5.942600000E+02  7.577051575E-01 
        74  8.805574705E-03 -1.650000021E-03  9.864727040E-04  2.129148505E-03  3.937038138E+01  5.942600088E+02  7.571595904E-01 
        75  9.485717905E-03 -1.650000014E-03  9.863583903E-04  2.129200793E-03  3.964213243E+01  5.942600000E+02  7.573043422E-01 
        76  9.996766092E-03 -1.649999943E-03  9.862710097E-04  2.129145012E-03  3.990670987E+01  5.942599823E+02  7.575279664E-01 
        77  7.730630904E-03 -1.650000039E-03  9.866502961E-04  2.129095981E-03  3.902668192E+01  5.942600133E+02  7.570211660E-01 
        78  8.091212126E-03 -1.649999999E-03  9.865892570E-04  2.129111287E-03  3.913486558E+01  5.942600000E+02  7.570603129E-01 
        79  8.598423723E-03 -1.649999983E-03  9.865066297E-04  2.129133366E-03  3.929063730E+01  5.942599911E+02  7.571167706E-01 
        80  1.153309208E-02 -1.650000032E-03  9.865404178E-04  2.123333581E-03  4.094603660E+01  5.942600088E+02  7.587805677E-01 
        81  7.573036225E-03 -1.650000030E-03  9.866765862E-04  2.129092157E-03  3.898839919E+01  5.942600088E+02  7.570110050E-01 
        82  5.783215100E-03 -1.650000004E-03  9.869826635E-04  2.129060295E-03  3.862413680E+01  5.942600000E+02  7.569267769E-01 
        83  6.035506259E-03 -1.649999949E-03  9.869375075E-04  2.129063030E-03  3.866330857E+01  5.942599823E+02  7.569332948E-01 
        84  6.236595952E-03 -1.650000002E-03  9.869024133E-04  2.129066160E-03  3.870094913E+01  5.942600000E+02  7.569412486E-01 
        85  6.880806203E-03 -1.649999944E-03  9.867931445E-04  2.129075795E-03  3.882558986E+01  5.942599823E+02  7.569669519E-01 
        86  1.172947215E-02 -1.650000029E-03  9.869723181E-04  2.117666346E-03  4.114152310E+01  5.942600088E+02  7.591018765E-01 
        87  4.832561986E-03 -1.649999941E-03  9.871570102E-04  2.129051098E-03  3.848808077E+01  5.942599823E+02  7.569052379E-01 
        88  5.159606270E-03 -1.650000004E-03  9.870976822E-04  2.129053829E-03  3.853122396E+01  5.942600000E+02  7.569115552E-01 
        89  3.947734035E-03 -1.649999955E-03  9.873277149E-04  2.129044454E-03  3.838949929E+01  5.942599823E+02  7.568917014E-01 
        90  4.232942892E-03 -1.649999946E-03  9.872707921E-04  2.129046434E-03  3.841730336E+01  5.942599823E+02  7.568951305E-01 
        91  1.189310817E-02 -1.649999954E-03  9.873330752E-04  2.107753418E-03  4.132612030E+01  5.942599822E+02  7.594018573E-01 
        92  2.914795121E-03 -1.649999999E-03  9.875323253E-04  2.129038006E-03  3.830433913E+01  5.942600000E+02  7.568816068E-01 
        93  3.058937451E-03 -1.650000039E-03  9.875036176E-04  2.129038860E-03  3.831345931E+01  5.942600133E+02  7.568825736E-01 
        94  3.121859929E-03 -1.649999985E-03  9.874906111E-04  2.129039181E-03  3.831813197E+01  5.942599956E+02  7.568830695E-01 
        95  1.285714191E-03 -1.649999950E-03  9.878538017E-04  2.129029435E-03  3.822461133E+01  5.942599823E+02  7.568730586E-01 
        96  1.816924899E-03 -1.650000049E-03  9.877480907E-04  2.129032156E-03  3.824372325E+01  5.942600177E+02  7.568752768E-01 
        97  2.170191834E-03 -1.650000044E-03  9.876810309E-04  2.129033923E-03  3.826033591E+01  5.942600177E+02  7.568770297E-01 
        98  1.202946298E-02 -1.649999953E-03  9.876343321E-04  2.089579533E-03  4.149582479E+01  5.942599822E+02  7.596209160E-01 
        99  1.214308635E-02 -1.649999988E-03  9.878858045E-04  2.061237018E-03  4.164022293E+01  5.942600000E+02  7.592893940E-01 
       100 -3.542577826E-04 -1.650000007E-03  9.881497301E-04  2.129022824E-03  3.820343020E+01  5.942600000E+02  7.568707590E-01 
       101  2.031021205E-04 -1.649999952E-03  9.880507533E-04  2.129024830E-03  3.820336637E+01  5.942599823E+02  7.568708196E-01 
       102  4.512136878E-04 -1.649999952E-03  9.880065915E-04  2.129025788E-03  3.820449786E+01  5.942599823E+02  7.568707606E-01 
       103  5.803136392E-04 -1.649999997E-03  9.879823968E-04  2.129026424E-03  3.820682390E+01  5.942600000E+02  7.568713131E-01 
       104  1.223776813E-02 -1.650000009E-03  9.880956075E-04  2.390364372E-03  4.175508036E+01  5.942600009E+02  7.523137042E-01 
       105 -1.968786396E-03 -1.649999951E-03  9.883890366E-04  2.129018425E-03  3.824253054E+01  5.942599823E+02  7.568762668E-01 
       106 -1.652977683E-03 -1.649999996E-03  9.883474365E-04  2.129019141E-03  3.823058131E+01  5.942600000E+02  7.568747715E-01 
       107 -1.155706233E-03 -1.649999999E-03  9.882811823E-04  2.129020292E-03  3.821591212E+01  5.942600000E+02  7.568726176E-01 
       108 -7.328599352E-04 -1.649999953E-03  9.882105507E-04  2.129021556E-03  3.820800004E+01  5.942599823E+02  7.568714212E-01 
       109  1.231666688E-02 -1.649999993E-03  9.882706246E-04  7.254061825E-03  4.182893764E+01  5.942600065E+02  7.023962607E-01 
       110 -1.238224737E-02 -1.650000051E-03  9.884166253E-04  8.434678000E-03  4.183474871E+01  5.942600609E+02  0.000000000E+00 
       111 -1.231697450E-02 -1.649999999E-03  9.884940960E-04  7.335144501E-03  4.182131319E+01  5.942600063E+02  7.042653254E-01 
       112 -2.327584992E-03 -1.649999952E-03  9.884358288E-04  2.129017814E-03  3.826074807E+01  5.942599823E+02  7.568784294E-01 
       113  1.238241434E-02 -1.650000051E-03  9.884166253E-04  8.359615431E-03  4.184041009E+01  5.942600609E+02  0.000000000E+00 
       114 -1.223864467E-02 -1.650000051E-03  9.885870638E-04  2.402619868E-03  4.174491733E+01  5.942600186E+02  7.523519787E-01 
       115 -1.214464338E-02 -1.649999994E-03  9.886984689E-04  2.057052640E-03  4.162902084E+01  5.942600000E+02  7.591035579E-01 
       116 -4.517199587E-03 -1.649999963E-03  9.887236864E-04  2.129016535E-03  3.843522719E+01  5.942599867E+02  7.569006672E-01 
       117 -4.414670316E-03 -1.650000033E-03  9.887104562E-04  2.129016536E-03  3.842424339E+01  5.942600133E+02  7.568991119E-01 
       118 -3.651595001E-03 -1.650000048E-03  9.886098026E-04  2.129016522E-03  3.835244483E+01  5.942600177E+02  7.568894492E-01 
       119 -3.094823677E-03 -1.650000049E-03  9.885372614E-04  2.129016858E-03  3.830791060E+01  5.942600177E+02  7.568839806E-01 
       120 -2.793029229E-03 -1.649999951E-03  9.884973581E-04  2.129017084E-03  3.828730549E+01  5.942599823E+02  7.568815383E-01 
       121 -1.203183536E-02 -1.650000008E-03  9.888320552E-04  2.086507292E-03  4.148468305E+01  5.942599999E+02  7.594493269E-01 
       122 -5.373331867E-03 -1.650000002E-03  9.888373881E-04  2.129018452E-03  3.854550423E+01  5.942600000E+02  7.569178521E-01 
       123 -4.706021831E-03 -1.649999978E-03  9.887486688E-04  2.129016954E-03  3.845878773E+01  5.942599911E+02  7.569043947E-01 
       124 -1.189645587E-02 -1.650000052E-03  9.889921867E-04  2.106017432E-03  4.131507086E+01  5.942600176E+02  7.592581998E-01 
       125 -5.769750150E-03 -1.650000058E-03  9.888914969E-04  2.129020268E-03  3.860613236E+01  5.942600177E+02  7.569286006E-01 
       126 -7.038392819E-03 -1.649999978E-03  9.890637268E-04  2.129030964E-03  3.884155789E+01  5.942599911E+02  7.569783614E-01 
       127 -6.777981764E-03 -1.650000004E-03  9.890279205E-04  2.129028443E-03  3.878955020E+01  5.942600000E+02  7.569670163E-01 
       128 -6.208507374E-03 -1.649999986E-03  9.889500532E-04  2.129022806E-03  3.867877968E+01  5.942600000E+02  7.569421657E-01 
       129 -1.173398426E-02 -1.649999973E-03  9.891839625E-04  2.116592713E-03  4.113027652E+01  5.942599911E+02  7.589860546E-01 
       130 -7.317166953E-03 -1.650000004E-03  9.891033433E-04  2.129036246E-03  3.890899170E+01  5.942600000E+02  7.569969772E-01 
       131 -8.713682192E-03 -1.650000053E-03  9.893002256E-04  2.129082047E-03  3.931251442E+01  5.942600177E+02  7.571355841E-01 
       132 -8.332633425E-03 -1.649999946E-03  9.892454469E-04  2.129066505E-03  3.919167666E+01  5.942599823E+02  7.570906722E-01 
       133 -7.874710432E-03 -1.649999955E-03  9.891805000E-04  2.129048159E-03  3.905165820E+01  5.942599823E+02  7.570376628E-01 
       134 -1.153899587E-02 -1.649999945E-03  9.894136741E-04  2.122627784E-03  4.093360244E+01  5.942599822E+02  7.586922536E-01 
       135 -9.733691370E-03 -1.650000000E-03  9.894490791E-04  2.129091282E-03  3.974344604E+01  5.942600000E+02  7.573963308E-01 
       136 -9.556210586E-03 -1.650000046E-03  9.894235574E-04  2.129132286E-03  3.964979710E+01  5.942600177E+02  7.573183214E-01 
       137 -9.266405885E-03 -1.650000050E-03  9.893819229E-04  2.129114584E-03  3.953137768E+01  5.942600177E+02  7.572536798E-01 
       138 -1.041736222E-02 -1.649999955E-03  9.895527119E-04  2.128943094E-03  4.011162605E+01  5.942599822E+02  7.576982503E-01 
       139 -1.130497527E-02 -1.649999952E-03  9.896886455E-04  2.126022308E-03  4.072464033E+01  5.942599822E+02  7.583960206E-01 
       140 -1.104863784E-02 -1.650000007E-03  9.896471749E-04  2.126872243E-03  4.054461252E+01  5.942599999E+02  7.581915951E-01 
       141  1.110265300E-02 -1.649999997E-03  1.972140752E-03  2.111724936E-03  3.981856689E+01  5.942600000E+02  7.596628733E-01 
       142  1.129766783E-02 -1.649999997E-03  1.972047450E-03  2.110263196E-03  3.988279553E+01  5.942600000E+02  7.599420245E-01 
       143  1.038834619E-02 -1.649999990E-03  1.972439484E-03  2.116886184E-03  3.958713345E+01  5.942600000E+02  7.586790245E-01 
       144  9.996815845E-03 -1.649999998E-03  1.972603110E-03  2.117143444E-03  3.946334304E+01  5.942600000E+02  7.583565209E-01 
       145  9.485811853E-03 -1.649999993E-03  1.972800993E-03  2.117457619E-03  3.930608239E+01  5.942600000E+02  7.579486301E-01 
       146  8.598398070E-03 -1.649999998E-03  1.973137196E-03  2.117381774E-03  3.905799664E+01  5.942600000E+02  7.575667061E-01 
       147  8.805409659E-03 -1.650000022E-03  1.973060752E-03  2.117398396E-03  3.911414674E+01  5.942600088E+02  7.576536693E-01 
       148  1.153328860E-02 -1.649999970E-03  1.973080771E-03  2.103213931E-03  3.995066921E+01  5.942599911E+02  7.604312998E-01 
       149  8.091608969E-03 -1.650000003E-03  1.973322042E-03  2.117344338E-03  3.893700296E+01  5.942600000E+02  7.574438018E-01 
       150  7.572601876E-03 -1.650000025E-03  1.973515861E-03  2.117311434E-03  3.882109139E+01  5.942600088E+02  7.573353126E-01 
       151  7.730469083E-03 -1.650000002E-03  1.973458047E-03  2.117318262E-03  3.885274440E+01  5.942600000E+02  7.573583924E-01 
