nodenumber     x-coordinate     y-coordinate     z-coordinate turb-kinetic-energy         pressure      temperature velocity-magnitude 
         1 -1.238224696E-02 -1.650000007E-03  0.000000000E+00  3.487632709E-03  3.556495799E+01  5.942600133E+02  0.000000000E+00 
         2 -1.231646687E-02 -1.649999949E-03  0.000000000E+00  1.628604084E-03  3.551191093E+01  5.942599823E+02  6.590101740E-01 
         3 -1.223752875E-02 -1.650000008E-03  0.000000000E+00  1.628604132E-03  3.537929215E+01  5.942600000E+02  6.590101936E-01 
         4 -1.214279805E-02 -1.649999951E-03  0.000000000E+00  1.628604084E-03  3.520763546E+01  5.942599823E+02  6.590101740E-01 
         5 -1.202911553E-02 -1.649999951E-03  0.000000000E+00  1.628604084E-03  3.500866731E+01  5.942599823E+02  6.590101740E-01 
         6 -1.189268779E-02 -1.650000001E-03  0.000000000E+00  1.628604132E-03  3.478823450E+01  5.942600000E+02  6.590101936E-01 
         7 -1.172896070E-02 -1.650000028E-03  0.000000000E+00  1.628604157E-03  3.455599385E+01  5.942600089E+02  6.590102035E-01 
         8 -1.153246726E-02 -1.649999968E-03  0.000000000E+00  1.628604108E-03  3.431460315E+01  5.942599911E+02  6.590101838E-01 
         9 -1.129664480E-02 -1.649999999E-03  0.000000000E+00  1.628604132E-03  3.395240984E+01  5.942600000E+02  6.590101936E-01 
        10 -1.104180182E-02 -1.649999952E-03  0.000000000E+00  1.628604084E-03  3.380260918E+01  5.942599823E+02  6.590101740E-01 
        11 -1.040965475E-02 -1.650000037E-03  0.000000000E+00  1.628604181E-03  3.343960982E+01  5.942600177E+02  6.590102133E-01 
        12 -9.727797567E-03 -1.649999974E-03  0.000000000E+00  1.628604108E-03  3.307955408E+01  5.942599911E+02  6.590101838E-01 
        13 -9.549135039E-03 -1.650000016E-03  0.000000000E+00  1.628604157E-03  3.298642701E+01  5.942600089E+02  6.590102035E-01 
        14 -9.257402967E-03 -1.649999996E-03  0.000000000E+00  1.628604132E-03  3.287743865E+01  5.942600000E+02  6.590101936E-01 
        15 -8.707201624E-03 -1.650000004E-03  0.000000000E+00  1.628604132E-03  3.267710221E+01  5.942600000E+02  6.590101936E-01 
        16 -8.327874969E-03 -1.650000002E-03  0.000000000E+00  1.628604132E-03  3.256840630E+01  5.942600000E+02  6.590101936E-01 
        17 -7.868819436E-03 -1.650000009E-03  0.000000000E+00  1.628604132E-03  3.244079606E+01  5.942600000E+02  6.590101936E-01 
        18 -7.309914944E-03 -1.650000005E-03  0.000000000E+00  1.628604132E-03  3.231444895E+01  5.942600000E+02  6.590101936E-01 
        19 -7.033056079E-03 -1.649999952E-03  0.000000000E+00  1.628604084E-03  3.225553321E+01  5.942599823E+02  6.590101740E-01 
        20 -6.774404682E-03 -1.650000049E-03  0.000000000E+00  1.628604181E-03  3.221101875E+01  5.942600177E+02  6.590102133E-01 
        21 -6.203718579E-03 -1.649999993E-03  0.000000000E+00  1.628604132E-03  3.211630714E+01  5.942600000E+02  6.590101936E-01 
        22 -5.764059055E-03 -1.650000057E-03  0.000000000E+00  1.628604181E-03  3.205271804E+01  5.942600177E+02  6.590102133E-01 
        23 -5.369046210E-03 -1.650000008E-03  0.000000000E+00  1.628604132E-03  3.200041701E+01  5.942600000E+02  6.590101936E-01 
        24 -4.703991919E-03 -1.649999998E-03  0.000000000E+00  1.628604132E-03  3.192551368E+01  5.942600000E+02  6.590101936E-01 
        25 -4.513416810E-03 -1.649999963E-03  0.000000000E+00  1.628604096E-03  3.190483382E+01  5.942599867E+02  6.590101789E-01 
        26 -4.409949101E-03 -1.650000002E-03  0.000000000E+00  1.628604132E-03  3.189525771E+01  5.942600000E+02  6.590101936E-01 
        27 -3.648226494E-03 -1.649999989E-03  0.000000000E+00  1.628604132E-03  3.183296311E+01  5.942600000E+02  6.590101936E-01 
        28 -3.090814824E-03 -1.649999990E-03  0.000000000E+00  1.628604132E-03  3.179360120E+01  5.942600000E+02  6.590101936E-01 
        29 -2.790049428E-03 -1.649999975E-03  0.000000000E+00  1.628604108E-03  3.177554741E+01  5.942599911E+02  6.590101838E-01 
        30 -2.326109559E-03 -1.650000046E-03  0.000000000E+00  1.628604181E-03  3.175256193E+01  5.942600177E+02  6.590102133E-01 
        31 -1.966101120E-03 -1.650000005E-03  0.000000000E+00  1.628604132E-03  3.173659328E+01  5.942600000E+02  6.590101936E-01 
        32 -1.649288649E-03 -1.650000004E-03  0.000000000E+00  1.628604132E-03  3.172622678E+01  5.942600000E+02  6.590101936E-01 
        33 -1.153324779E-03 -1.650000049E-03  0.000000000E+00  1.628604181E-03  3.171367003E+01  5.942600177E+02  6.590102133E-01 
        34 -7.314993435E-04 -1.649999992E-03  0.000000000E+00  1.628604132E-03  3.170642908E+01  5.942600000E+02  6.590101936E-01 
        35 -3.521276869E-04 -1.650000043E-03  0.000000000E+00  1.628604181E-03  3.170216565E+01  5.942600177E+02  6.590102133E-01 
        36  2.062356178E-04 -1.650000004E-03  0.000000000E+00  1.628604132E-03  3.170117975E+01  5.942600000E+02  6.590101936E-01 
        37  4.531226353E-04 -1.649999970E-03  0.000000000E+00  1.628604108E-03  3.170182352E+01  5.942599911E+02  6.590101838E-01 
        38  5.816147412E-04 -1.650000031E-03  0.000000000E+00  1.628604157E-03  3.170356502E+01  5.942600089E+02  6.590102035E-01 
        39  1.287381078E-03 -1.649999940E-03  0.000000000E+00  1.628604084E-03  3.171797205E+01  5.942599823E+02  6.590101740E-01 
        40  1.817906072E-03 -1.650000045E-03  0.000000000E+00  1.628604181E-03  3.173337905E+01  5.942600177E+02  6.590102133E-01 
        41  2.171618469E-03 -1.649999958E-03  0.000000000E+00  1.628604084E-03  3.174694675E+01  5.942599823E+02  6.590101740E-01 
        42  2.917015337E-03 -1.650000026E-03  0.000000000E+00  1.628604157E-03  3.178348502E+01  5.942600089E+02  6.590102035E-01 
        43  3.060138752E-03 -1.649999982E-03  0.000000000E+00  1.628604114E-03  3.179099830E+01  5.942599934E+02  6.590101863E-01 
        44  3.122627803E-03 -1.650000012E-03  0.000000000E+00  1.628604145E-03  3.179496355E+01  5.942600044E+02  6.590101986E-01 
        45  3.948750735E-03 -1.649999946E-03  0.000000000E+00  1.628604084E-03  3.185554367E+01  5.942599823E+02  6.590101740E-01 
        46  4.233552192E-03 -1.650000005E-03  0.000000000E+00  1.628604132E-03  3.187809098E+01  5.942600000E+02  6.590101936E-01 
        47  4.833507872E-03 -1.649999945E-03  0.000000000E+00  1.628604084E-03  3.193628636E+01  5.942599823E+02  6.590101740E-01 
        48  5.160210487E-03 -1.649999946E-03  0.000000000E+00  1.628604084E-03  3.197220483E+01  5.942599823E+02  6.590101740E-01 
        49  5.783248106E-03 -1.650000052E-03  0.000000000E+00  1.628604181E-03  3.205340761E+01  5.942600177E+02  6.590102133E-01 
        50  6.035984549E-03 -1.649999976E-03  0.000000000E+00  1.628604108E-03  3.208824739E+01  5.942599911E+02  6.590101838E-01 
        51  6.237400109E-03 -1.650000022E-03  0.000000000E+00  1.628604157E-03  3.212004104E+01  5.942600089E+02  6.590102035E-01 
        52  6.881112835E-03 -1.650000056E-03  0.000000000E+00  1.628604181E-03  3.222647602E+01  5.942600177E+02  6.590102133E-01 
        53  7.573470319E-03 -1.649999997E-03  0.000000000E+00  1.628604132E-03  3.236751463E+01  5.942600000E+02  6.590101936E-01 
        54  7.730792309E-03 -1.650000003E-03  0.000000000E+00  1.628604132E-03  3.240068941E+01  5.942600000E+02  6.590101936E-01 
        55  8.090815089E-03 -1.650000001E-03  0.000000000E+00  1.628604132E-03  3.249715010E+01  5.942600000E+02  6.590101936E-01 
        56  8.598449542E-03 -1.650000003E-03  0.000000000E+00  1.628604132E-03  3.263646172E+01  5.942600000E+02  6.590101936E-01 
        57  8.805739513E-03 -1.650000003E-03  0.000000000E+00  1.628604132E-03  3.271073481E+01  5.942600000E+02  6.590101936E-01 
        58  9.485623847E-03 -1.649999997E-03  0.000000000E+00  1.628604132E-03  3.296377527E+01  5.942600000E+02  6.590101936E-01 
        59  9.996717122E-03 -1.650000053E-03  0.000000000E+00  1.628604181E-03  3.322728876E+01  5.942600177E+02  6.590102133E-01 
        60  1.038796781E-02 -1.650000000E-03  0.000000000E+00  1.628604132E-03  3.343798017E+01  5.942600000E+02  6.590101936E-01 
        61  1.110225324E-02 -1.650000050E-03  0.000000000E+00  1.628604181E-03  3.385461926E+01  5.942600177E+02  6.590102133E-01 
        62  1.129715473E-02 -1.650000051E-03  0.000000000E+00  1.628604181E-03  3.397069969E+01  5.942600177E+02  6.590102133E-01 
        63  1.153289457E-02 -1.649999949E-03  0.000000000E+00  1.628604084E-03  3.434189793E+01  5.942599823E+02  6.590101740E-01 
        64  1.172932302E-02 -1.649999996E-03  0.000000000E+00  1.628604132E-03  3.459098375E+01  5.942600000E+02  6.590101936E-01 
        65  1.189299876E-02 -1.650000052E-03  0.000000000E+00  1.628604181E-03  3.483164627E+01  5.942600177E+02  6.590102133E-01 
        66  1.202938442E-02 -1.649999949E-03  0.000000000E+00  1.628604084E-03  3.506130202E+01  5.942599823E+02  6.590101740E-01 
        67  1.214303390E-02 -1.650000044E-03  0.000000000E+00  1.628604181E-03  3.526932871E+01  5.942600177E+02  6.590102133E-01 
        68  1.223773642E-02 -1.650000012E-03  0.000000000E+00  1.628604132E-03  3.544912490E+01  5.942600000E+02  6.590101936E-01 
        69  1.231665286E-02 -1.650000046E-03  0.000000000E+00  1.628604181E-03  3.558790723E+01  5.942600177E+02  6.590102133E-01 
        70  1.238241385E-02 -1.649999998E-03  0.000000000E+00  3.464465724E-03  3.564312376E+01  5.942600134E+02  0.000000000E+00 
        71  1.110245300E-02 -1.649999996E-03  9.860657205E-04  1.612965648E-03  3.360441700E+01  5.942600000E+02  6.603800721E-01 
        72  1.129741118E-02 -1.649999994E-03  9.860237298E-04  1.612526307E-03  3.371366987E+01  5.942599999E+02  6.605321946E-01 
        73  1.038815708E-02 -1.649999987E-03  9.861987235E-04  1.614514225E-03  3.321606800E+01  5.942600000E+02  6.598459842E-01 
        74  8.805574705E-03 -1.650000021E-03  9.864727040E-04  1.614537519E-03  3.261915093E+01  5.942600088E+02  6.593517629E-01 
        75  9.485717905E-03 -1.650000014E-03  9.863583903E-04  1.614581443E-03  3.283758377E+01  5.942600000E+02  6.594825778E-01 
        76  9.996766092E-03 -1.649999943E-03  9.862710097E-04  1.614544670E-03  3.304933666E+01  5.942599823E+02  6.596853377E-01 
        77  7.730630904E-03 -1.650000039E-03  9.866502961E-04  1.614493831E-03  3.234223641E+01  5.942600133E+02  6.592267571E-01 
        78  8.091212126E-03 -1.649999999E-03  9.865892570E-04  1.614506507E-03  3.242947016E+01  5.942600000E+02  6.592620963E-01 
        79  8.598423723E-03 -1.649999983E-03  9.865066297E-04  1.614524799E-03  3.255506825E+01  5.942599911E+02  6.593130599E-01 
        80  1.153309208E-02 -1.650000032E-03  9.865404178E-04  1.610077443E-03  3.387798157E+01  5.942600088E+02  6.608258654E-01 
        81  7.573036225E-03 -1.650000030E-03  9.866765862E-04  1.614490660E-03  3.231129408E+01  5.942600088E+02  6.592175770E-01 
        82  5.783215100E-03 -1.650000004E-03  9.869826635E-04  1.614464299E-03  3.201677020E+01  5.942600000E+02  6.591414023E-01 
        83  6.035506259E-03 -1.649999949E-03  9.869375075E-04  1.614466553E-03  3.204846445E+01  5.942599823E+02  6.591473091E-01 
        84  6.236595952E-03 -1.650000002E-03  9.869024133E-04  1.614469137E-03  3.207890417E+01  5.942600000E+02  6.591545052E-01 
        85  6.880806203E-03 -1.649999944E-03  9.867931445E-04  1.614477115E-03  3.217975339E+01  5.942599823E+02  6.591777660E-01 
        86  1.172947215E-02 -1.650000029E-03  9.869723181E-04  1.605676181E-03  3.403320570E+01  5.942600088E+02  6.611190981E-01 
        87  4.832561986E-03 -1.649999941E-03  9.871570102E-04  1.614456772E-03  3.190667763E+01  5.942599823E+02  6.591218542E-01 
        88  5.159606270E-03 -1.650000004E-03  9.870976822E-04  1.614458994E-03  3.194159495E+01  5.942600000E+02  6.591275990E-01 
        89  3.947734035E-03 -1.649999955E-03  9.873277149E-04  1.614451395E-03  3.182701725E+01  5.942599823E+02  6.591095414E-01 
        90  4.232942892E-03 -1.649999946E-03  9.872707921E-04  1.614452988E-03  3.184946512E+01  5.942599823E+02  6.591126642E-01 
        91  1.189310817E-02 -1.649999954E-03  9.873330752E-04  1.597928397E-03  3.417958411E+01  5.942599822E+02  6.613918899E-01 
        92  2.914795121E-03 -1.649999999E-03  9.875323253E-04  1.614446242E-03  3.175842482E+01  5.942600000E+02  6.591003371E-01 
        93  3.058937451E-03 -1.650000039E-03  9.875036176E-04  1.614446915E-03  3.176573594E+01  5.942600133E+02  6.591012204E-01 
        94  3.121859929E-03 -1.649999985E-03  9.874906111E-04  1.614447172E-03  3.176949447E+01  5.942599956E+02  6.591016736E-01 
        95  1.285714191E-03 -1.649999950E-03  9.878538017E-04  1.614439534E-03  3.169494687E+01  5.942599823E+02  6.590925113E-01 
        96  1.816924899E-03 -1.650000049E-03  9.877480907E-04  1.614441641E-03  3.171000307E+01  5.942600177E+02  6.590945534E-01 
        97  2.170191834E-03 -1.650000044E-03  9.876810309E-04  1.614443021E-03  3.172320949E+01  5.942600177E+02  6.590961495E-01 
        98  1.202946298E-02 -1.649999953E-03  9.876343321E-04  1.583606944E-03  3.431403258E+01  5.942599822E+02  6.615866341E-01 
        99  1.214308635E-02 -1.649999988E-03  9.878858045E-04  1.562564445E-03  3.442831254E+01  5.942600000E+02  6.612656484E-01 
       100 -3.542577826E-04 -1.650000007E-03  9.881497301E-04  1.614434497E-03  3.167953536E+01  5.942600000E+02  6.590904022E-01 
       101  2.031021205E-04 -1.649999952E-03  9.880507533E-04  1.614436006E-03  3.167881148E+01  5.942599823E+02  6.590904610E-01 
       102  4.512136878E-04 -1.649999952E-03  9.880065915E-04  1.614436729E-03  3.167943944E+01  5.942599823E+02  6.590903689E-01 
       103  5.803136392E-04 -1.649999997E-03  9.879823968E-04  1.614437216E-03  3.168119499E+01  5.942600000E+02  6.590909065E-01 
       104  1.223776813E-02 -1.650000009E-03  9.880956075E-04  1.850571650E-03  3.451890627E+01  5.942600007E+02  6.548047413E-01 
       105 -1.968786396E-03 -1.649999951E-03  9.883890366E-04  1.614431317E-03  3.171363826E+01  5.942599823E+02  6.590954226E-01 
       106 -1.652977683E-03 -1.649999996E-03  9.883474365E-04  1.614431817E-03  3.170344000E+01  5.942600000E+02  6.590940864E-01 
       107 -1.155706233E-03 -1.649999999E-03  9.882811823E-04  1.614432635E-03  3.169077066E+01  5.942600000E+02  6.590921841E-01 
       108 -7.328599352E-04 -1.649999953E-03  9.882105507E-04  1.614433559E-03  3.168375479E+01  5.942599823E+02  6.590910320E-01 
       109  1.231666688E-02 -1.649999993E-03  9.882706246E-04  5.731783861E-03  3.457718846E+01  5.942600051E+02  6.095934641E-01 
       110 -1.238224737E-02 -1.650000051E-03  9.884166253E-04  6.672725109E-03  3.458604409E+01  5.942600506E+02  0.000000000E+00 
       111 -1.231697450E-02 -1.649999999E-03  9.884940960E-04  5.797160775E-03  3.457541043E+01  5.942600050E+02  6.112431016E-01 
       112 -2.327584992E-03 -1.649999952E-03  9.884358288E-04  1.614430914E-03  3.172903658E+01  5.942599823E+02  6.590973598E-01 
       113  1.238241434E-02 -1.650000051E-03  9.884166253E-04  6.612249654E-03  3.458625046E+01  5.942600506E+02  0.000000000E+00 
       114 -1.223864467E-02 -1.650000051E-03  9.885870638E-04  1.861380031E-03  3.451512623E+01  5.942600184E+02  6.548465995E-01 
       115 -1.214464338E-02 -1.649999994E-03  9.886984689E-04  1.559561081E-03  3.442388294E+01  5.942600000E+02  6.611065139E-01 
       116 -4.517199587E-03 -1.649999963E-03  9.887236864E-04  1.614430548E-03  3.187474998E+01  5.942599867E+02  6.591172370E-01 
       117 -4.414670316E-03 -1.650000033E-03  9.887104562E-04  1.614430509E-03  3.186564198E+01  5.942600133E+02  6.591158511E-01 
       118 -3.651595001E-03 -1.650000048E-03  9.886098026E-04  1.614430244E-03  3.180588900E+01  5.942600177E+02  6.591072231E-01 
       119 -3.094823677E-03 -1.650000049E-03  9.885372614E-04  1.614430345E-03  3.176869822E+01  5.942600177E+02  6.591023309E-01 
       120 -2.793029229E-03 -1.649999951E-03  9.884973581E-04  1.614430447E-03  3.175141259E+01  5.942599823E+02  6.591001409E-01 
       121 -1.203183536E-02 -1.650000008E-03  9.888320552E-04  1.581179866E-03  3.430979929E+01  5.942600000E+02  6.614366083E-01 
       122 -5.373331867E-03 -1.650000002E-03  9.888373881E-04  1.614432433E-03  3.196588847E+01  5.942600000E+02  6.591325019E-01 
       123 -4.706021831E-03 -1.649999978E-03  9.887486688E-04  1.614430960E-03  3.189422584E+01  5.942599911E+02  6.591205460E-01 
       124 -1.189645587E-02 -1.650000052E-03  9.889921867E-04  1.596564446E-03  3.417606567E+01  5.942600177E+02  6.612693688E-01 
       125 -5.769750150E-03 -1.650000058E-03  9.888914969E-04  1.614434066E-03  3.201578646E+01  5.942600177E+02  6.591420105E-01 
       126 -7.038392819E-03 -1.649999978E-03  9.890637268E-04  1.614443267E-03  3.220852508E+01  5.942599911E+02  6.591860372E-01 
       127 -6.777981764E-03 -1.650000004E-03  9.890279205E-04  1.614441114E-03  3.216600051E+01  5.942600000E+02  6.591760037E-01 
       128 -6.208507374E-03 -1.649999986E-03  9.889500532E-04  1.614436319E-03  3.207545496E+01  5.942600000E+02  6.591540207E-01 
       129 -1.173398426E-02 -1.649999973E-03  9.891839625E-04  1.604838567E-03  3.403017322E+01  5.942599911E+02  6.610219488E-01 
       130 -7.317166953E-03 -1.650000004E-03  9.891033433E-04  1.614447639E-03  3.226332225E+01  5.942600000E+02  6.592025423E-01 
       131 -8.713682192E-03 -1.650000053E-03  9.893002256E-04  1.614485233E-03  3.258946429E+01  5.942600177E+02  6.593261766E-01 
       132 -8.332633425E-03 -1.649999946E-03  9.892454469E-04  1.614472515E-03  3.249201734E+01  5.942599823E+02  6.592860539E-01 
       133 -7.874710432E-03 -1.649999955E-03  9.891805000E-04  1.614457488E-03  3.237911922E+01  5.942599823E+02  6.592386702E-01 
       134 -1.153899587E-02 -1.649999945E-03  9.894136741E-04  1.609529540E-03  3.387501788E+01  5.942599822E+02  6.607527041E-01 
       135 -9.733691370E-03 -1.650000000E-03  9.894490791E-04  1.614498326E-03  3.293367144E+01  5.942600000E+02  6.595626444E-01 
       136 -9.556210586E-03 -1.650000046E-03  9.894235574E-04  1.614527694E-03  3.285931591E+01  5.942600177E+02  6.594913413E-01 
       137 -9.266405885E-03 -1.650000050E-03  9.893819229E-04  1.614512706E-03  3.276458973E+01  5.942600177E+02  6.594328949E-01 
       138 -1.041736222E-02 -1.649999955E-03  9.895527119E-04  1.614392741E-03  3.322600057E+01  5.942599823E+02  6.598385886E-01 
       139 -1.130497527E-02 -1.649999952E-03  9.896886455E-04  1.612156129E-03  3.371024215E+01  5.942599822E+02  6.604802968E-01 
       140 -1.104863784E-02 -1.650000007E-03  9.896471749E-04  1.612806939E-03  3.356805011E+01  5.942600000E+02  6.602922686E-01 
       141  1.110265300E-02 -1.649999997E-03  1.972140752E-03  1.601293300E-03  3.298663224E+01  5.942600000E+02  6.616219335E-01 
       142  1.129766783E-02 -1.649999997E-03  1.972047450E-03  1.600169061E-03  3.303873106E+01  5.942600000E+02  6.618750130E-01 
       143  1.038834619E-02 -1.649999990E-03  1.972439484E-03  1.605261853E-03  3.279905182E+01  5.942600000E+02  6.607298233E-01 
       144  9.996815845E-03 -1.649999998E-03  1.972603110E-03  1.605453859E-03  3.269852441E+01  5.942600000E+02  6.604384653E-01 
       145  9.485811853E-03 -1.649999993E-03  1.972800993E-03  1.605688166E-03  3.257087750E+01  5.942600000E+02  6.600698625E-01 
       146  8.598398070E-03 -1.649999998E-03  1.973137196E-03  1.605622686E-03  3.236939282E+01  5.942600000E+02  6.597254699E-01 
       147  8.805409659E-03 -1.650000022E-03  1.973060752E-03  1.605637071E-03  3.241498248E+01  5.942600088E+02  6.598038997E-01 
       148  1.153328860E-02 -1.649999970E-03  1.973080771E-03  1.594716721E-03  3.309365698E+01  5.942599911E+02  6.623201691E-01 
       149  8.091608969E-03 -1.650000003E-03  1.973322042E-03  1.605591752E-03  3.227109870E+01  5.942600000E+02  6.596146147E-01 
       150  7.572601876E-03 -1.650000025E-03  1.973515861E-03  1.605564573E-03  3.217691897E+01  5.942600088E+02  6.595167202E-01 
       151  7.730469083E-03 -1.650000002E-03  1.973458047E-03  1.605570217E-03  3.220264464E+01  5.942600000E+02  6.595375768E-01 
