nodenumber     x-coordinate     y-coordinate     z-coordinate turb-kinetic-energy         pressure      temperature velocity-magnitude 
         1 -1.238224696E-02 -1.650000007E-03  0.000000000E+00  3.853921776E-03  3.845039985E+01  5.942600149E+02  0.000000000E+00 
         2 -1.231646687E-02 -1.649999949E-03  0.000000000E+00  1.823685858E-03  3.839214589E+01  5.942599823E+02  6.973637605E-01 
         3 -1.223752875E-02 -1.650000008E-03  0.000000000E+00  1.823685913E-03  3.824634510E+01  5.942600000E+02  6.973637813E-01 
         4 -1.214279805E-02 -1.649999951E-03  0.000000000E+00  1.823685858E-03  3.805734130E+01  5.942599823E+02  6.973637605E-01 
         5 -1.202911553E-02 -1.649999951E-03  0.000000000E+00  1.823685858E-03  3.783842785E+01  5.942599823E+02  6.973637605E-01 
         6 -1.189268779E-02 -1.650000001E-03  0.000000000E+00  1.823685913E-03  3.759627698E+01  5.942600000E+02  6.973637813E-01 
         7 -1.172896070E-02 -1.650000028E-03  0.000000000E+00  1.823685940E-03  3.734118805E+01  5.942600089E+02  6.973637916E-01 
         8 -1.153246726E-02 -1.649999968E-03  0.000000000E+00  1.823685886E-03  3.707587935E+01  5.942599911E+02  6.973637709E-01 
         9 -1.129664480E-02 -1.649999999E-03  0.000000000E+00  1.823685913E-03  3.667751172E+01  5.942600000E+02  6.973637813E-01 
        10 -1.104180182E-02 -1.649999952E-03  0.000000000E+00  1.823685858E-03  3.651279108E+01  5.942599823E+02  6.973637605E-01 
        11 -1.040965475E-02 -1.650000037E-03  0.000000000E+00  1.823685967E-03  3.611363079E+01  5.942600177E+02  6.973638020E-01 
        12 -9.727797567E-03 -1.649999974E-03  0.000000000E+00  1.823685886E-03  3.571836293E+01  5.942599911E+02  6.973637709E-01 
        13 -9.549135039E-03 -1.650000016E-03  0.000000000E+00  1.823685940E-03  3.561611997E+01  5.942600089E+02  6.973637916E-01 
        14 -9.257402967E-03 -1.649999996E-03  0.000000000E+00  1.823685913E-03  3.549688516E+01  5.942600000E+02  6.973637813E-01 
        15 -8.707201624E-03 -1.650000004E-03  0.000000000E+00  1.823685913E-03  3.527774010E+01  5.942600000E+02  6.973637813E-01 
        16 -8.327874969E-03 -1.650000002E-03  0.000000000E+00  1.823685913E-03  3.515932267E+01  5.942600000E+02  6.973637813E-01 
        17 -7.868819436E-03 -1.650000009E-03  0.000000000E+00  1.823685913E-03  3.502027611E+01  5.942600000E+02  6.973637813E-01 
        18 -7.309914944E-03 -1.650000005E-03  0.000000000E+00  1.823685913E-03  3.488308349E+01  5.942600000E+02  6.973637813E-01 
        19 -7.033056079E-03 -1.649999952E-03  0.000000000E+00  1.823685858E-03  3.481914353E+01  5.942599823E+02  6.973637605E-01 
        20 -6.774404682E-03 -1.650000049E-03  0.000000000E+00  1.823685967E-03  3.477097224E+01  5.942600177E+02  6.973638020E-01 
        21 -6.203718579E-03 -1.649999993E-03  0.000000000E+00  1.823685913E-03  3.466845908E+01  5.942600000E+02  6.973637813E-01 
        22 -5.764059055E-03 -1.650000057E-03  0.000000000E+00  1.823685967E-03  3.459977104E+01  5.942600177E+02  6.973638020E-01 
        23 -5.369046210E-03 -1.650000008E-03  0.000000000E+00  1.823685913E-03  3.454332255E+01  5.942600000E+02  6.973637813E-01 
        24 -4.703991919E-03 -1.649999998E-03  0.000000000E+00  1.823685913E-03  3.446260387E+01  5.942600000E+02  6.973637813E-01 
        25 -4.513416810E-03 -1.649999963E-03  0.000000000E+00  1.823685872E-03  3.444031936E+01  5.942599867E+02  6.973637657E-01 
        26 -4.409949101E-03 -1.650000002E-03  0.000000000E+00  1.823685913E-03  3.443001100E+01  5.942600000E+02  6.973637813E-01 
        27 -3.648226494E-03 -1.649999989E-03  0.000000000E+00  1.823685913E-03  3.436303881E+01  5.942600000E+02  6.973637813E-01 
        28 -3.090814824E-03 -1.649999990E-03  0.000000000E+00  1.823685913E-03  3.432076665E+01  5.942600000E+02  6.973637813E-01 
        29 -2.790049428E-03 -1.649999975E-03  0.000000000E+00  1.823685886E-03  3.430140761E+01  5.942599911E+02  6.973637709E-01 
        30 -2.326109559E-03 -1.650000046E-03  0.000000000E+00  1.823685967E-03  3.427679428E+01  5.942600177E+02  6.973638020E-01 
        31 -1.966101120E-03 -1.650000005E-03  0.000000000E+00  1.823685913E-03  3.425971145E+01  5.942600000E+02  6.973637813E-01 
        32 -1.649288649E-03 -1.650000004E-03  0.000000000E+00  1.823685913E-03  3.424865640E+01  5.942600000E+02  6.973637813E-01 
        33 -1.153324779E-03 -1.650000049E-03  0.000000000E+00  1.823685967E-03  3.423531812E+01  5.942600177E+02  6.973638020E-01 
        34 -7.314993435E-04 -1.649999992E-03  0.000000000E+00  1.823685913E-03  3.422768424E+01  5.942600000E+02  6.973637813E-01 
        35 -3.521276869E-04 -1.650000043E-03  0.000000000E+00  1.823685967E-03  3.422324451E+01  5.942600177E+02  6.973638020E-01 
        36  2.062356178E-04 -1.650000004E-03  0.000000000E+00  1.823685913E-03  3.422241224E+01  5.942600000E+02  6.973637813E-01 
        37  4.531226353E-04 -1.649999970E-03  0.000000000E+00  1.823685886E-03  3.422320907E+01  5.942599911E+02  6.973637709E-01 
        38  5.816147412E-04 -1.650000031E-03  0.000000000E+00  1.823685940E-03  3.422514334E+01  5.942600089E+02  6.973637916E-01 
        39  1.287381078E-03 -1.649999940E-03  0.000000000E+00  1.823685858E-03  3.424099682E+01  5.942599823E+02  6.973637605E-01 
        40  1.817906072E-03 -1.650000045E-03  0.000000000E+00  1.823685967E-03  3.425785814E+01  5.942600177E+02  6.973638020E-01 
        41  2.171618469E-03 -1.649999958E-03  0.000000000E+00  1.823685858E-03  3.427265846E+01  5.942599823E+02  6.973637605E-01 
        42  2.917015337E-03 -1.650000026E-03  0.000000000E+00  1.823685940E-03  3.431242892E+01  5.942600089E+02  6.973637916E-01 
        43  3.060138752E-03 -1.649999982E-03  0.000000000E+00  1.823685892E-03  3.432060211E+01  5.942599934E+02  6.973637735E-01 
        44  3.122627803E-03 -1.650000012E-03  0.000000000E+00  1.823685926E-03  3.432491011E+01  5.942600044E+02  6.973637864E-01 
        45  3.948750735E-03 -1.649999946E-03  0.000000000E+00  1.823685858E-03  3.439068286E+01  5.942599823E+02  6.973637605E-01 
        46  4.233552192E-03 -1.650000005E-03  0.000000000E+00  1.823685913E-03  3.441514783E+01  5.942600000E+02  6.973637813E-01 
        47  4.833507872E-03 -1.649999945E-03  0.000000000E+00  1.823685858E-03  3.447826677E+01  5.942599823E+02  6.973637605E-01 
        48  5.160210487E-03 -1.649999946E-03  0.000000000E+00  1.823685858E-03  3.451720554E+01  5.942599823E+02  6.973637605E-01 
        49  5.783248106E-03 -1.650000052E-03  0.000000000E+00  1.823685967E-03  3.460524211E+01  5.942600177E+02  6.973638020E-01 
        50  6.035984549E-03 -1.649999976E-03  0.000000000E+00  1.823685886E-03  3.464301703E+01  5.942599911E+02  6.973637709E-01 
        51  6.237400109E-03 -1.650000022E-03  0.000000000E+00  1.823685940E-03  3.467749882E+01  5.942600089E+02  6.973637916E-01 
        52  6.881112835E-03 -1.650000056E-03  0.000000000E+00  1.823685967E-03  3.479290474E+01  5.942600177E+02  6.973638020E-01 
        53  7.573470319E-03 -1.649999997E-03  0.000000000E+00  1.823685913E-03  3.494596100E+01  5.942600000E+02  6.973637813E-01 
        54  7.730792309E-03 -1.650000003E-03  0.000000000E+00  1.823685913E-03  3.498195519E+01  5.942600000E+02  6.973637813E-01 
        55  8.090815089E-03 -1.650000001E-03  0.000000000E+00  1.823685913E-03  3.508677836E+01  5.942600000E+02  6.973637813E-01 
        56  8.598449542E-03 -1.650000003E-03  0.000000000E+00  1.823685913E-03  3.523818212E+01  5.942600000E+02  6.973637813E-01 
        57  8.805739513E-03 -1.650000003E-03  0.000000000E+00  1.823685913E-03  3.531910212E+01  5.942600000E+02  6.973637813E-01 
        58  9.485623847E-03 -1.649999997E-03  0.000000000E+00  1.823685913E-03  3.559475107E+01  5.942600000E+02  6.973637813E-01 
        59  9.996717122E-03 -1.650000053E-03  0.000000000E+00  1.823685967E-03  3.588273343E+01  5.942600177E+02  6.973638020E-01 
        60  1.038796781E-02 -1.650000000E-03  0.000000000E+00  1.823685913E-03  3.611298971E+01  5.942600000E+02  6.973637813E-01 
        61  1.110225324E-02 -1.650000050E-03  0.000000000E+00  1.823685967E-03  3.656946462E+01  5.942600177E+02  6.973638020E-01 
        62  1.129715473E-02 -1.650000051E-03  0.000000000E+00  1.823685967E-03  3.669665035E+01  5.942600177E+02  6.973638020E-01 
        63  1.153289457E-02 -1.649999949E-03  0.000000000E+00  1.823685858E-03  3.710398436E+01  5.942599823E+02  6.973637605E-01 
        64  1.172932302E-02 -1.649999996E-03  0.000000000E+00  1.823685913E-03  3.737747965E+01  5.942600000E+02  6.973637813E-01 
        65  1.189299876E-02 -1.650000052E-03  0.000000000E+00  1.823685967E-03  3.764175758E+01  5.942600177E+02  6.973638020E-01 
        66  1.202938442E-02 -1.649999949E-03  0.000000000E+00  1.823685858E-03  3.789408371E+01  5.942599823E+02  6.973637605E-01 
        67  1.214303390E-02 -1.650000044E-03  0.000000000E+00  1.823685967E-03  3.812301479E+01  5.942600177E+02  6.973638020E-01 
        68  1.223773642E-02 -1.650000012E-03  0.000000000E+00  1.823685913E-03  3.832113704E+01  5.942600000E+02  6.973637813E-01 
        69  1.231665286E-02 -1.650000046E-03  0.000000000E+00  1.823685967E-03  3.847392663E+01  5.942600177E+02  6.973638020E-01 
        70  1.238241385E-02 -1.649999998E-03  0.000000000E+00  3.828804140E-03  3.853462929E+01  5.942600149E+02  0.000000000E+00 
        71  1.110245300E-02 -1.649999996E-03  9.860657205E-04  1.806170300E-03  3.629353532E+01  5.942599999E+02  6.987889874E-01 
        72  1.129741118E-02 -1.649999994E-03  9.860237298E-04  1.805680866E-03  3.641304168E+01  5.942599999E+02  6.989472291E-01 
        73  1.038815708E-02 -1.649999987E-03  9.861987235E-04  1.807895924E-03  3.586874971E+01  5.942600000E+02  6.982334050E-01 
        74  8.805574705E-03 -1.650000021E-03  9.864727040E-04  1.807927340E-03  3.521880855E+01  5.942600088E+02  6.977174294E-01 
        75  9.485717905E-03 -1.650000014E-03  9.863583903E-04  1.807974627E-03  3.545619383E+01  5.942600000E+02  6.978541734E-01 
        76  9.996766092E-03 -1.649999943E-03  9.862710097E-04  1.807931526E-03  3.568701406E+01  5.942599823E+02  6.980657550E-01 
        77  7.730630904E-03 -1.650000039E-03  9.866502961E-04  1.807880353E-03  3.491826095E+01  5.942600133E+02  6.975868627E-01 
        78  8.091212126E-03 -1.649999999E-03  9.865892570E-04  1.807893982E-03  3.501289152E+01  5.942600000E+02  6.976237636E-01 
        79  8.598423723E-03 -1.649999983E-03  9.865066297E-04  1.807913648E-03  3.514915367E+01  5.942599911E+02  6.976769805E-01 
        80  1.153309208E-02 -1.650000032E-03  9.865404178E-04  1.802962035E-03  3.659325318E+01  5.942600088E+02  6.992520687E-01 
        81  7.573036225E-03 -1.650000030E-03  9.866765862E-04  1.807876959E-03  3.488472856E+01  5.942600088E+02  6.975773052E-01 
        82  5.783215100E-03 -1.650000004E-03  9.869826635E-04  1.807848731E-03  3.456554518E+01  5.942600000E+02  6.974981475E-01 
        83  6.035506259E-03 -1.649999949E-03  9.869375075E-04  1.807851147E-03  3.459989306E+01  5.942599823E+02  6.975042601E-01 
        84  6.236595952E-03 -1.650000002E-03  9.869024133E-04  1.807853916E-03  3.463288085E+01  5.942600000E+02  6.975117289E-01 
        85  6.880806203E-03 -1.649999944E-03  9.867931445E-04  1.807862448E-03  3.474214747E+01  5.942599823E+02  6.975358636E-01 
        86  1.172947215E-02 -1.650000029E-03  9.869723181E-04  1.798083079E-03  3.676375011E+01  5.942600088E+02  6.995566793E-01 
        87  4.832561986E-03 -1.649999941E-03  9.871570102E-04  1.807840634E-03  3.444623667E+01  5.942599823E+02  6.974779478E-01 
        88  5.159606270E-03 -1.650000004E-03  9.870976822E-04  1.807843032E-03  3.448407934E+01  5.942600000E+02  6.974838727E-01 
        89  3.947734035E-03 -1.649999955E-03  9.873277149E-04  1.807834814E-03  3.435984547E+01  5.942599823E+02  6.974652560E-01 
        90  4.232942892E-03 -1.649999946E-03  9.872707921E-04  1.807836544E-03  3.438419940E+01  5.942599823E+02  6.974684698E-01 
        91  1.189310817E-02 -1.649999954E-03  9.873330752E-04  1.789516579E-03  3.692475212E+01  5.942599822E+02  6.998411388E-01 
        92  2.914795121E-03 -1.649999999E-03  9.875323253E-04  1.807829199E-03  3.428535974E+01  5.942600000E+02  6.974557896E-01 
        93  3.058937451E-03 -1.650000039E-03  9.875036176E-04  1.807829938E-03  3.429331274E+01  5.942600133E+02  6.974566968E-01 
        94  3.121859929E-03 -1.649999985E-03  9.874906111E-04  1.807830217E-03  3.429739629E+01  5.942599956E+02  6.974571620E-01 
        95  1.285714191E-03 -1.649999950E-03  9.878538017E-04  1.807821810E-03  3.421614610E+01  5.942599823E+02  6.974477578E-01 
        96  1.816924899E-03 -1.650000049E-03  9.877480907E-04  1.807824144E-03  3.423262316E+01  5.942600177E+02  6.974498509E-01 
        97  2.170191834E-03 -1.650000044E-03  9.876810309E-04  1.807825666E-03  3.424702980E+01  5.942600177E+02  6.974514925E-01 
        98  1.202946298E-02 -1.649999953E-03  9.876343321E-04  1.773733590E-03  3.707265319E+01  5.942599822E+02  7.000480952E-01 
        99  1.214308635E-02 -1.649999988E-03  9.878858045E-04  1.749902565E-03  3.719831439E+01  5.942600000E+02  6.997212393E-01 
       100 -3.542577826E-04 -1.650000007E-03  9.881497301E-04  1.807816188E-03  3.419881036E+01  5.942600000E+02  6.974455927E-01 
       101  2.031021205E-04 -1.649999952E-03  9.880507533E-04  1.807817883E-03  3.419826777E+01  5.942599823E+02  6.974456519E-01 
       102  4.512136878E-04 -1.649999952E-03  9.880065915E-04  1.807818694E-03  3.419905194E+01  5.942599823E+02  6.974455697E-01 
       103  5.803136392E-04 -1.649999997E-03  9.879823968E-04  1.807819236E-03  3.420100164E+01  5.942600000E+02  6.974461122E-01 
       104  1.223776813E-02 -1.650000009E-03  9.880956075E-04  2.054026476E-03  3.729808110E+01  5.942600008E+02  6.930557494E-01 
       105 -1.968786396E-03 -1.649999951E-03  9.883890366E-04  1.807812544E-03  3.423491168E+01  5.942599823E+02  6.974507523E-01 
       106 -1.652977683E-03 -1.649999996E-03  9.883474365E-04  1.807813128E-03  3.422404225E+01  5.942600000E+02  6.974493698E-01 
       107 -1.155706233E-03 -1.649999999E-03  9.882811823E-04  1.807814073E-03  3.421058841E+01  5.942600000E+02  6.974473950E-01 
       108 -7.328599352E-04 -1.649999953E-03  9.882105507E-04  1.807815126E-03  3.420319999E+01  5.942599823E+02  6.974462309E-01 
       109  1.231666688E-02 -1.649999993E-03  9.882706246E-04  6.310625167E-03  3.736225760E+01  5.942600057E+02  6.459750410E-01 
       110 -1.238224737E-02 -1.650000051E-03  9.884166253E-04  7.343185932E-03  3.737810104E+01  5.942600544E+02  0.000000000E+00 
       111 -1.231697450E-02 -1.649999999E-03  9.884940960E-04  6.382069934E-03  3.736639943E+01  5.942600054E+02  6.477148743E-01 
       112 -2.327584992E-03 -1.649999952E-03  9.884358288E-04  1.807812059E-03  3.425137373E+01  5.942599823E+02  6.974527550E-01 
       113  1.238241434E-02 -1.650000051E-03  9.884166253E-04  7.277063409E-03  3.737223052E+01  5.942600545E+02  0.000000000E+00 
       114 -1.223864467E-02 -1.650000051E-03  9.885870638E-04  2.065373928E-03  3.729999547E+01  5.942600185E+02  6.930934943E-01 
       115 -1.214464338E-02 -1.649999994E-03  9.886984689E-04  1.746447231E-03  3.719944494E+01  5.942600000E+02  6.995483282E-01 
       116 -4.517199587E-03 -1.649999963E-03  9.887236864E-04  1.807811307E-03  3.440772661E+01  5.942599867E+02  6.974733722E-01 
       117 -4.414670316E-03 -1.650000033E-03  9.887104562E-04  1.807811286E-03  3.439793218E+01  5.942600133E+02  6.974719296E-01 
       118 -3.651595001E-03 -1.650000048E-03  9.886098026E-04  1.807811135E-03  3.433374985E+01  5.942600177E+02  6.974629685E-01 
       119 -3.094823677E-03 -1.650000049E-03  9.885372614E-04  1.807811335E-03  3.429384174E+01  5.942600177E+02  6.974578967E-01 
       120 -2.793029229E-03 -1.649999951E-03  9.884973581E-04  1.807811489E-03  3.427531925E+01  5.942599823E+02  6.974556313E-01 
       121 -1.203183536E-02 -1.650000008E-03  9.888320552E-04  1.771057258E-03  3.707376748E+01  5.942599999E+02  6.998877949E-01 
       122 -5.373331867E-03 -1.650000002E-03  9.888373881E-04  1.807813166E-03  3.450582840E+01  5.942600000E+02  6.974893045E-01 
       123 -4.706021831E-03 -1.649999978E-03  9.887486688E-04  1.807811713E-03  3.442868897E+01  5.942599911E+02  6.974768275E-01 
       124 -1.189645587E-02 -1.650000052E-03  9.889921867E-04  1.788008264E-03  3.692600592E+01  5.942600176E+02  6.997072516E-01 
       125 -5.769750150E-03 -1.650000058E-03  9.888914969E-04  1.807814844E-03  3.455960685E+01  5.942600177E+02  6.974992706E-01 
       126 -7.038392819E-03 -1.649999978E-03  9.890637268E-04  1.807824523E-03  3.476771696E+01  5.942599911E+02  6.975455570E-01 
       127 -6.777981764E-03 -1.650000004E-03  9.890279205E-04  1.807822250E-03  3.472178254E+01  5.942600000E+02  6.975350004E-01 
       128 -6.208507374E-03 -1.649999986E-03  9.889500532E-04  1.807817176E-03  3.462396228E+01  5.942600000E+02  6.975118664E-01 
       129 -1.173398426E-02 -1.649999973E-03  9.891839625E-04  1.797153169E-03  3.676485044E+01  5.942599911E+02  6.994493734E-01 
       130 -7.317166953E-03 -1.650000004E-03  9.891033433E-04  1.807829228E-03  3.482705332E+01  5.942600000E+02  6.975629633E-01 
       131 -8.713682192E-03 -1.650000053E-03  9.893002256E-04  1.807870047E-03  3.518108843E+01  5.942600177E+02  6.976932208E-01 
       132 -8.332633425E-03 -1.649999946E-03  9.892454469E-04  1.807856200E-03  3.507520149E+01  5.942599823E+02  6.976509498E-01 
       133 -7.874710432E-03 -1.649999955E-03  9.891805000E-04  1.807839840E-03  3.495250604E+01  5.942599823E+02  6.976010469E-01 
       134 -1.153899587E-02 -1.649999945E-03  9.894136741E-04  1.802352061E-03  3.659341534E+01  5.942599822E+02  6.991709124E-01 
       135 -9.733691370E-03 -1.650000000E-03  9.894490791E-04  1.807882623E-03  3.555717236E+01  5.942600000E+02  6.979403183E-01 
       136 -9.556210586E-03 -1.650000046E-03  9.894235574E-04  1.807916104E-03  3.547559931E+01  5.942600177E+02  6.978662306E-01 
       137 -9.266405885E-03 -1.650000050E-03  9.893819229E-04  1.807899865E-03  3.537220620E+01  5.942600177E+02  6.978050239E-01 
       138 -1.041736222E-02 -1.649999955E-03  9.895527119E-04  1.807762176E-03  3.587784848E+01  5.942599823E+02  6.982271024E-01 
       139 -1.130497527E-02 -1.649999952E-03  9.896886455E-04  1.805268726E-03  3.641140584E+01  5.942599822E+02  6.988898956E-01 
       140 -1.104863784E-02 -1.650000007E-03  9.896471749E-04  1.805994195E-03  3.625472147E+01  5.942599999E+02  6.986956847E-01 
       141  1.110265300E-02 -1.649999997E-03  1.972140752E-03  1.793118931E-03  3.561071116E+01  5.942600000E+02  7.000853560E-01 
       142  1.129766783E-02 -1.649999997E-03  1.972047450E-03  1.791868773E-03  3.566666101E+01  5.942600000E+02  7.003496825E-01 
       143  1.038834619E-02 -1.649999990E-03  1.972439484E-03  1.797532689E-03  3.540909967E+01  5.942600000E+02  6.991537115E-01 
       144  9.996815845E-03 -1.649999998E-03  1.972603110E-03  1.797747779E-03  3.530098334E+01  5.942600000E+02  6.988486895E-01 
       145  9.485811853E-03 -1.649999993E-03  1.972800993E-03  1.798010385E-03  3.516362377E+01  5.942600000E+02  6.984629215E-01 
       146  8.598398070E-03 -1.649999998E-03  1.973137196E-03  1.797940310E-03  3.494642694E+01  5.942600000E+02  6.981024658E-01 
       147  8.805409659E-03 -1.650000022E-03  1.973060752E-03  1.797955690E-03  3.499558549E+01  5.942600088E+02  6.981845336E-01 
       148  1.153328860E-02 -1.649999970E-03  1.973080771E-03  1.785815289E-03  3.572565175E+01  5.942599911E+02  7.008134196E-01 
       149  8.091608969E-03 -1.650000003E-03  1.973322042E-03  1.797907012E-03  3.484030851E+01  5.942600000E+02  6.979867567E-01 
       150  7.572601876E-03 -1.650000025E-03  1.973515861E-03  1.797877783E-03  3.473861647E+01  5.942600088E+02  6.978846609E-01 
       151  7.730469083E-03 -1.650000002E-03  1.973458047E-03  1.797883827E-03  3.476641381E+01  5.942600000E+02  6.979063469E-01 
