nodenumber     x-coordinate     y-coordinate     z-coordinate turb-kinetic-energy         pressure      temperature velocity-magnitude 
         1 -1.238224696E-02 -1.650000007E-03  0.000000000E+00  4.808273639E-03  4.579952743E+01  5.942600191E+02  0.000000000E+00 
         2 -1.231646687E-02 -1.649999949E-03  0.000000000E+00  2.341381941E-03  4.572779791E+01  5.942599823E+02  7.901699179E-01 
         3 -1.223752875E-02 -1.650000008E-03  0.000000000E+00  2.341382011E-03  4.554780933E+01  5.942600000E+02  7.901699414E-01 
         4 -1.214279805E-02 -1.649999951E-03  0.000000000E+00  2.341381941E-03  4.531411031E+01  5.942599823E+02  7.901699179E-01 
         5 -1.202911553E-02 -1.649999951E-03  0.000000000E+00  2.341381941E-03  4.504393594E+01  5.942599823E+02  7.901699179E-01 
         6 -1.189268779E-02 -1.650000001E-03  0.000000000E+00  2.341382011E-03  4.474570319E+01  5.942600000E+02  7.901699414E-01 
         7 -1.172896070E-02 -1.650000028E-03  0.000000000E+00  2.341382046E-03  4.443168081E+01  5.942600089E+02  7.901699532E-01 
         8 -1.153246726E-02 -1.649999968E-03  0.000000000E+00  2.341381976E-03  4.410493798E+01  5.942599911E+02  7.901699296E-01 
         9 -1.129664480E-02 -1.649999999E-03  0.000000000E+00  2.341382011E-03  4.361383935E+01  5.942600000E+02  7.901699414E-01 
        10 -1.104180182E-02 -1.649999952E-03  0.000000000E+00  2.341381941E-03  4.341060119E+01  5.942599823E+02  7.901699179E-01 
        11 -1.040965475E-02 -1.650000037E-03  0.000000000E+00  2.341382081E-03  4.291816284E+01  5.942600177E+02  7.901699650E-01 
        12 -9.727797567E-03 -1.649999974E-03  0.000000000E+00  2.341381976E-03  4.243034952E+01  5.942599911E+02  7.901699296E-01 
        13 -9.549135039E-03 -1.650000016E-03  0.000000000E+00  2.341382046E-03  4.230418747E+01  5.942600089E+02  7.901699532E-01 
        14 -9.257402967E-03 -1.649999996E-03  0.000000000E+00  2.341382011E-03  4.215720439E+01  5.942600000E+02  7.901699414E-01 
        15 -8.707201624E-03 -1.650000004E-03  0.000000000E+00  2.341382011E-03  4.188707660E+01  5.942600000E+02  7.901699414E-01 
        16 -8.327874969E-03 -1.650000002E-03  0.000000000E+00  2.341382011E-03  4.174150676E+01  5.942600000E+02  7.901699414E-01 
        17 -7.868819436E-03 -1.650000009E-03  0.000000000E+00  2.341382011E-03  4.157059492E+01  5.942600000E+02  7.901699414E-01 
        18 -7.309914944E-03 -1.650000005E-03  0.000000000E+00  2.341382011E-03  4.140256715E+01  5.942600000E+02  7.901699414E-01 
        19 -7.033056079E-03 -1.649999952E-03  0.000000000E+00  2.341381941E-03  4.132430828E+01  5.942599823E+02  7.901699179E-01 
        20 -6.774404682E-03 -1.650000049E-03  0.000000000E+00  2.341382081E-03  4.126561303E+01  5.942600177E+02  7.901699650E-01 
        21 -6.203718579E-03 -1.649999993E-03  0.000000000E+00  2.341382011E-03  4.114068864E+01  5.942600000E+02  7.901699414E-01 
        22 -5.764059055E-03 -1.650000057E-03  0.000000000E+00  2.341382081E-03  4.105733152E+01  5.942600177E+02  7.901699650E-01 
        23 -5.369046210E-03 -1.650000008E-03  0.000000000E+00  2.341382011E-03  4.098894758E+01  5.942600000E+02  7.901699414E-01 
        24 -4.703991919E-03 -1.649999998E-03  0.000000000E+00  2.341382011E-03  4.089157890E+01  5.942600000E+02  7.901699414E-01 
        25 -4.513416810E-03 -1.649999963E-03  0.000000000E+00  2.341381959E-03  4.086470501E+01  5.942599867E+02  7.901699238E-01 
        26 -4.409949101E-03 -1.650000002E-03  0.000000000E+00  2.341382011E-03  4.085231790E+01  5.942600000E+02  7.901699414E-01 
        27 -3.648226494E-03 -1.649999989E-03  0.000000000E+00  2.341382011E-03  4.077214104E+01  5.942600000E+02  7.901699414E-01 
        28 -3.090814824E-03 -1.649999990E-03  0.000000000E+00  2.341382011E-03  4.072174077E+01  5.942600000E+02  7.901699414E-01 
        29 -2.790049428E-03 -1.649999975E-03  0.000000000E+00  2.341381976E-03  4.069877703E+01  5.942599911E+02  7.901699296E-01 
        30 -2.326109559E-03 -1.650000046E-03  0.000000000E+00  2.341382081E-03  4.066973442E+01  5.942600177E+02  7.901699650E-01 
        31 -1.966101120E-03 -1.650000005E-03  0.000000000E+00  2.341382011E-03  4.064965088E+01  5.942600000E+02  7.901699414E-01 
        32 -1.649288649E-03 -1.650000004E-03  0.000000000E+00  2.341382011E-03  4.063680465E+01  5.942600000E+02  7.901699414E-01 
        33 -1.153324779E-03 -1.650000049E-03  0.000000000E+00  2.341382081E-03  4.062153055E+01  5.942600177E+02  7.901699650E-01 
        34 -7.314993435E-04 -1.649999992E-03  0.000000000E+00  2.341382011E-03  4.061303219E+01  5.942600000E+02  7.901699414E-01 
        35 -3.521276869E-04 -1.650000043E-03  0.000000000E+00  2.341382081E-03  4.060832993E+01  5.942600177E+02  7.901699650E-01 
        36  2.062356178E-04 -1.650000004E-03  0.000000000E+00  2.341382011E-03  4.060828685E+01  5.942600000E+02  7.901699414E-01 
        37  4.531226353E-04 -1.649999970E-03  0.000000000E+00  2.341381976E-03  4.060968040E+01  5.942599911E+02  7.901699296E-01 
        38  5.816147412E-04 -1.650000031E-03  0.000000000E+00  2.341382046E-03  4.061225385E+01  5.942600089E+02  7.901699532E-01 
        39  1.287381078E-03 -1.649999940E-03  0.000000000E+00  2.341381941E-03  4.063274668E+01  5.942599823E+02  7.901699179E-01 
        40  1.817906072E-03 -1.650000045E-03  0.000000000E+00  2.341382081E-03  4.065415704E+01  5.942600177E+02  7.901699650E-01 
        41  2.171618469E-03 -1.649999958E-03  0.000000000E+00  2.341381941E-03  4.067275459E+01  5.942599823E+02  7.901699179E-01 
        42  2.917015337E-03 -1.650000026E-03  0.000000000E+00  2.341382046E-03  4.072236770E+01  5.942600089E+02  7.901699532E-01 
        43  3.060138752E-03 -1.649999982E-03  0.000000000E+00  2.341381985E-03  4.073254573E+01  5.942599934E+02  7.901699326E-01 
        44  3.122627803E-03 -1.650000012E-03  0.000000000E+00  2.341382029E-03  4.073788882E+01  5.942600044E+02  7.901699473E-01 
        45  3.948750735E-03 -1.649999946E-03  0.000000000E+00  2.341381941E-03  4.081927954E+01  5.942599823E+02  7.901699179E-01 
        46  4.233552192E-03 -1.650000005E-03  0.000000000E+00  2.341382011E-03  4.084950252E+01  5.942600000E+02  7.901699414E-01 
        47  4.833507872E-03 -1.649999945E-03  0.000000000E+00  2.341381941E-03  4.092734992E+01  5.942599823E+02  7.901699179E-01 
        48  5.160210487E-03 -1.649999946E-03  0.000000000E+00  2.341381941E-03  4.097531659E+01  5.942599823E+02  7.901699179E-01 
        49  5.783248106E-03 -1.650000052E-03  0.000000000E+00  2.341382081E-03  4.108376204E+01  5.942600177E+02  7.901699650E-01 
        50  6.035984549E-03 -1.649999976E-03  0.000000000E+00  2.341381976E-03  4.113028502E+01  5.942599911E+02  7.901699296E-01 
        51  6.237400109E-03 -1.650000022E-03  0.000000000E+00  2.341382046E-03  4.117275322E+01  5.942600089E+02  7.901699532E-01 
        52  6.881112835E-03 -1.650000056E-03  0.000000000E+00  2.341382081E-03  4.131483327E+01  5.942600177E+02  7.901699650E-01 
        53  7.573470319E-03 -1.649999997E-03  0.000000000E+00  2.341382011E-03  4.150337625E+01  5.942600000E+02  7.901699414E-01 
        54  7.730792309E-03 -1.650000003E-03  0.000000000E+00  2.341382011E-03  4.154770420E+01  5.942600000E+02  7.901699414E-01 
        55  8.090815089E-03 -1.650000001E-03  0.000000000E+00  2.341382011E-03  4.167690655E+01  5.942600000E+02  7.901699414E-01 
        56  8.598449542E-03 -1.650000003E-03  0.000000000E+00  2.341382011E-03  4.186351066E+01  5.942600000E+02  7.901699414E-01 
        57  8.805739513E-03 -1.650000003E-03  0.000000000E+00  2.341382011E-03  4.196332274E+01  5.942600000E+02  7.901699414E-01 
        58  9.485623847E-03 -1.649999997E-03  0.000000000E+00  2.341382011E-03  4.230328933E+01  5.942600000E+02  7.901699414E-01 
        59  9.996717122E-03 -1.650000053E-03  0.000000000E+00  2.341382081E-03  4.265863511E+01  5.942600177E+02  7.901699650E-01 
        60  1.038796781E-02 -1.650000000E-03  0.000000000E+00  2.341382011E-03  4.294274137E+01  5.942600000E+02  7.901699414E-01 
        61  1.110225324E-02 -1.650000050E-03  0.000000000E+00  2.341382081E-03  4.350599254E+01  5.942600177E+02  7.901699650E-01 
        62  1.129715473E-02 -1.650000051E-03  0.000000000E+00  2.341382081E-03  4.366292296E+01  5.942600177E+02  7.901699650E-01 
        63  1.153289457E-02 -1.649999949E-03  0.000000000E+00  2.341381941E-03  4.416538042E+01  5.942599823E+02  7.901699179E-01 
        64  1.172932302E-02 -1.649999996E-03  0.000000000E+00  2.341382011E-03  4.450253322E+01  5.942600000E+02  7.901699414E-01 
        65  1.189299876E-02 -1.650000052E-03  0.000000000E+00  2.341382081E-03  4.482818497E+01  5.942600177E+02  7.901699650E-01 
        66  1.202938442E-02 -1.649999949E-03  0.000000000E+00  2.341381941E-03  4.513925056E+01  5.942599823E+02  7.901699179E-01 
        67  1.214303390E-02 -1.650000044E-03  0.000000000E+00  2.341382081E-03  4.542208545E+01  5.942600177E+02  7.901699650E-01 
        68  1.223773642E-02 -1.650000012E-03  0.000000000E+00  2.341382011E-03  4.566744520E+01  5.942600000E+02  7.901699414E-01 
        69  1.231665286E-02 -1.650000046E-03  0.000000000E+00  2.341382081E-03  4.585641426E+01  5.942600177E+02  7.901699650E-01 
        70  1.238241385E-02 -1.649999998E-03  0.000000000E+00  4.778228821E-03  4.593126315E+01  5.942600191E+02  0.000000000E+00 
        71  1.110245300E-02 -1.649999996E-03  9.860657205E-04  2.318869840E-03  4.316573661E+01  5.942599999E+02  7.917203950E-01 
        72  1.129741118E-02 -1.649999994E-03  9.860237298E-04  2.318245073E-03  4.331324430E+01  5.942599999E+02  7.918923685E-01 
        73  1.038815708E-02 -1.649999987E-03  9.861987235E-04  2.321073310E-03  4.264139066E+01  5.942600000E+02  7.911166193E-01 
        74  8.805574705E-03 -1.650000021E-03  9.864727040E-04  2.321134557E-03  4.183953796E+01  5.942600088E+02  7.905551166E-01 
        75  9.485717905E-03 -1.650000014E-03  9.863583903E-04  2.321189579E-03  4.213224887E+01  5.942600000E+02  7.907041028E-01 
        76  9.996766092E-03 -1.649999943E-03  9.862710097E-04  2.321125820E-03  4.241711497E+01  5.942599823E+02  7.909342539E-01 
        77  7.730630904E-03 -1.650000039E-03  9.866502961E-04  2.321078911E-03  4.146919873E+01  5.942600133E+02  7.904126190E-01 
        78  8.091212126E-03 -1.649999999E-03  9.865892570E-04  2.321095174E-03  4.158578060E+01  5.942600000E+02  7.904529210E-01 
        79  8.598423723E-03 -1.649999983E-03  9.865066297E-04  2.321118632E-03  4.175363826E+01  5.942599911E+02  7.905110444E-01 
        80  1.153309208E-02 -1.650000032E-03  9.865404178E-04  2.314812411E-03  4.353559673E+01  5.942600088E+02  7.922234037E-01 
        81  7.573036225E-03 -1.650000030E-03  9.866765862E-04  2.321074832E-03  4.142792896E+01  5.942600088E+02  7.904021531E-01 
        82  5.783215100E-03 -1.650000004E-03  9.869826635E-04  2.321040798E-03  4.103508334E+01  5.942600000E+02  7.903153740E-01 
        83  6.035506259E-03 -1.649999949E-03  9.869375075E-04  2.321043729E-03  4.107736172E+01  5.942599823E+02  7.903220942E-01 
        84  6.236595952E-03 -1.650000002E-03  9.869024133E-04  2.321047079E-03  4.111796516E+01  5.942600000E+02  7.903302904E-01 
        85  6.880806203E-03 -1.649999944E-03  9.867931445E-04  2.321057381E-03  4.125240105E+01  5.942599823E+02  7.903567783E-01 
        86  1.172947215E-02 -1.650000029E-03  9.869723181E-04  2.308677457E-03  4.374577830E+01  5.942600088E+02  7.925539786E-01 
        87  4.832561986E-03 -1.649999941E-03  9.871570102E-04  2.321030918E-03  4.088819684E+01  5.942599823E+02  7.902931607E-01 
        88  5.159606270E-03 -1.650000004E-03  9.870976822E-04  2.321033857E-03  4.093478760E+01  5.942600000E+02  7.902996784E-01 
        89  3.947734035E-03 -1.649999955E-03  9.873277149E-04  2.321023760E-03  4.078164676E+01  5.942599823E+02  7.902791917E-01 
        90  4.232942892E-03 -1.649999946E-03  9.872707921E-04  2.321025896E-03  4.081172020E+01  5.942599823E+02  7.902827319E-01 
        91  1.189310817E-02 -1.649999954E-03  9.873330752E-04  2.297967240E-03  4.394422548E+01  5.942599822E+02  7.928625080E-01 
        92  2.914795121E-03 -1.649999999E-03  9.875323253E-04  2.321016791E-03  4.068942321E+01  5.942600000E+02  7.902687681E-01 
        93  3.058937451E-03 -1.650000039E-03  9.875036176E-04  2.321017716E-03  4.069932401E+01  5.942600133E+02  7.902697666E-01 
        94  3.121859929E-03 -1.649999985E-03  9.874906111E-04  2.321018063E-03  4.070438839E+01  5.942599956E+02  7.902702786E-01 
        95  1.285714191E-03 -1.649999950E-03  9.878538017E-04  2.321007489E-03  4.060260280E+01  5.942599823E+02  7.902599450E-01 
        96  1.816924899E-03 -1.650000049E-03  9.877480907E-04  2.321010448E-03  4.062351726E+01  5.942600177E+02  7.902622325E-01 
        97  2.170191834E-03 -1.650000044E-03  9.876810309E-04  2.321012366E-03  4.064161905E+01  5.942600177E+02  7.902640440E-01 
        98  1.202946298E-02 -1.649999953E-03  9.876343321E-04  2.278382136E-03  4.412672056E+01  5.942599822E+02  7.930880322E-01 
        99  1.214308635E-02 -1.649999988E-03  9.878858045E-04  2.247399636E-03  4.428212831E+01  5.942600000E+02  7.927534803E-01 
       100 -3.542577826E-04 -1.650000007E-03  9.881497301E-04  2.321000279E-03  4.057864932E+01  5.942600000E+02  7.902575836E-01 
       101  2.031021205E-04 -1.649999952E-03  9.880507533E-04  2.321002473E-03  4.057898876E+01  5.942599823E+02  7.902576415E-01 
       102  4.512136878E-04 -1.649999952E-03  9.880065915E-04  2.321003518E-03  4.058038706E+01  5.942599823E+02  7.902575956E-01 
       103  5.803136392E-04 -1.649999997E-03  9.879823968E-04  2.321004211E-03  4.058297992E+01  5.942600000E+02  7.902581520E-01 
       104  1.223776813E-02 -1.650000009E-03  9.880956075E-04  2.590572966E-03  4.440585885E+01  5.942600010E+02  7.856058245E-01 
       105 -1.968786396E-03 -1.649999951E-03  9.883890366E-04  2.320995439E-03  4.061944691E+01  5.942599823E+02  7.902633253E-01 
       106 -1.652977683E-03 -1.649999996E-03  9.883474365E-04  2.320996231E-03  4.060684424E+01  5.942600000E+02  7.902617579E-01 
       107 -1.155706233E-03 -1.649999999E-03  9.882811823E-04  2.320997501E-03  4.059146089E+01  5.942600000E+02  7.902594797E-01 
       108 -7.328599352E-04 -1.649999953E-03  9.882105507E-04  2.320998890E-03  4.058327626E+01  5.942599823E+02  7.902582633E-01 
       109  1.231666688E-02 -1.649999993E-03  9.882706246E-04  7.808644217E-03  4.448539864E+01  5.942600070E+02  7.341229520E-01 
       110 -1.238224737E-02 -1.650000051E-03  9.884166253E-04  9.075692694E-03  4.448121760E+01  5.942600647E+02  0.000000000E+00 
       111 -1.231697450E-02 -1.649999999E-03  9.884940960E-04  7.895328093E-03  4.446676675E+01  5.942600067E+02  7.360641101E-01 
       112 -2.327584992E-03 -1.649999952E-03  9.884358288E-04  2.320994757E-03  4.063875399E+01  5.942599823E+02  7.902655851E-01 
       113  1.238241434E-02 -1.650000051E-03  9.884166253E-04  8.995440816E-03  4.449775064E+01  5.942600647E+02  0.000000000E+00 
       114 -1.223864467E-02 -1.650000051E-03  9.885870638E-04  2.603327015E-03  4.438450973E+01  5.942600186E+02  7.856447714E-01 
       115 -1.214464338E-02 -1.649999994E-03  9.886984689E-04  2.242785907E-03  4.425957697E+01  5.942600000E+02  7.925609056E-01 
       116 -4.517199587E-03 -1.649999963E-03  9.887236864E-04  2.320993211E-03  4.082470807E+01  5.942599867E+02  7.902887257E-01 
       117 -4.414670316E-03 -1.650000033E-03  9.887104562E-04  2.320993222E-03  4.081296802E+01  5.942600133E+02  7.902871117E-01 
       118 -3.651595001E-03 -1.650000048E-03  9.886098026E-04  2.320993270E-03  4.073632254E+01  5.942600177E+02  7.902770690E-01 
       119 -3.094823677E-03 -1.650000049E-03  9.885372614E-04  2.320993675E-03  4.068886069E+01  5.942600177E+02  7.902713800E-01 
       120 -2.793029229E-03 -1.649999951E-03  9.884973581E-04  2.320993939E-03  4.066694233E+01  5.942599823E+02  7.902688355E-01 
       121 -1.203183536E-02 -1.650000008E-03  9.888320552E-04  2.275077522E-03  4.410427559E+01  5.942599999E+02  7.929104438E-01 
       122 -5.373331867E-03 -1.650000002E-03  9.888373881E-04  2.320995190E-03  4.094275133E+01  5.942600000E+02  7.903065460E-01 
       123 -4.706021831E-03 -1.649999978E-03  9.887486688E-04  2.320993644E-03  4.084992450E+01  5.942599911E+02  7.902925909E-01 
       124 -1.189645587E-02 -1.650000052E-03  9.889921867E-04  2.296097542E-03  4.392186118E+01  5.942600176E+02  7.927135589E-01 
       125 -5.769750150E-03 -1.650000058E-03  9.888914969E-04  2.320997099E-03  4.100774324E+01  5.942600177E+02  7.903176747E-01 
       126 -7.038392819E-03 -1.649999978E-03  9.890637268E-04  2.321008410E-03  4.126045326E+01  5.942599911E+02  7.903690763E-01 
       127 -6.777981764E-03 -1.650000004E-03  9.890279205E-04  2.321005740E-03  4.120460431E+01  5.942600000E+02  7.903573618E-01 
       128 -6.208507374E-03 -1.649999986E-03  9.889500532E-04  2.320999772E-03  4.108565711E+01  5.942600000E+02  7.903317062E-01 
       129 -1.173398426E-02 -1.649999973E-03  9.891839625E-04  2.307519450E-03  4.372321795E+01  5.942599911E+02  7.924337194E-01 
       130 -7.317166953E-03 -1.650000004E-03  9.891033433E-04  2.321014013E-03  4.133295159E+01  5.942600000E+02  7.903882559E-01 
       131 -8.713682192E-03 -1.650000053E-03  9.893002256E-04  2.321062515E-03  4.176705176E+01  5.942600177E+02  7.905308897E-01 
       132 -8.332633425E-03 -1.649999946E-03  9.892454469E-04  2.321046061E-03  4.163701600E+01  5.942599823E+02  7.904846922E-01 
       133 -7.874710432E-03 -1.649999955E-03  9.891805000E-04  2.321026648E-03  4.148635179E+01  5.942599823E+02  7.904301646E-01 
       134 -1.153899587E-02 -1.649999945E-03  9.894136741E-04  2.314050439E-03  4.351176842E+01  5.942599822E+02  7.921315652E-01 
       135 -9.733691370E-03 -1.650000000E-03  9.894490791E-04  2.321069214E-03  4.223096560E+01  5.942600000E+02  7.907989467E-01 
       136 -9.556210586E-03 -1.650000046E-03  9.894235574E-04  2.321114820E-03  4.213015385E+01  5.942600177E+02  7.907187432E-01 
       137 -9.266405885E-03 -1.650000050E-03  9.893819229E-04  2.321096397E-03  4.200267128E+01  5.942600177E+02  7.906522891E-01 
       138 -1.041736222E-02 -1.649999955E-03  9.895527119E-04  2.320904093E-03  4.262732965E+01  5.942599822E+02  7.911093424E-01 
       139 -1.130497527E-02 -1.649999952E-03  9.896886455E-04  2.317728749E-03  4.328702519E+01  5.942599822E+02  7.918268928E-01 
       140 -1.104863784E-02 -1.650000007E-03  9.896471749E-04  2.318652770E-03  4.309328558E+01  5.942599999E+02  7.916166746E-01 
       141  1.110265300E-02 -1.649999997E-03  1.972140752E-03  2.302147108E-03  4.232354225E+01  5.942600000E+02  7.931315958E-01 
       142  1.129766783E-02 -1.649999997E-03  1.972047450E-03  2.300559259E-03  4.239281443E+01  5.942600000E+02  7.934188424E-01 
       143  1.038834619E-02 -1.649999990E-03  1.972439484E-03  2.307753923E-03  4.207393028E+01  5.942600000E+02  7.921192308E-01 
       144  9.996815845E-03 -1.649999998E-03  1.972603110E-03  2.308036890E-03  4.194045604E+01  5.942600000E+02  7.917873642E-01 
       145  9.485811853E-03 -1.649999993E-03  1.972800993E-03  2.308382536E-03  4.177088421E+01  5.942600000E+02  7.913676301E-01 
       146  8.598398070E-03 -1.649999998E-03  1.973137196E-03  2.308303995E-03  4.150341117E+01  5.942600000E+02  7.909745348E-01 
       147  8.805409659E-03 -1.650000022E-03  1.973060752E-03  2.308321183E-03  4.156395365E+01  5.942600088E+02  7.910640410E-01 
       148  1.153328860E-02 -1.649999970E-03  1.973080771E-03  2.292918398E-03  4.246604528E+01  5.942599911E+02  7.939221976E-01 
       149  8.091608969E-03 -1.650000003E-03  1.973322042E-03  2.308264264E-03  4.137294786E+01  5.942600000E+02  7.908479901E-01 
       150  7.572601876E-03 -1.650000025E-03  1.973515861E-03  2.308229303E-03  4.124795315E+01  5.942600088E+02  7.907362741E-01 
       151  7.730469083E-03 -1.650000002E-03  1.973458047E-03  2.308236583E-03  4.128209053E+01  5.942600000E+02  7.907600505E-01 
