nodenumber     x-coordinate     y-coordinate     z-coordinate turb-kinetic-energy         pressure      temperature velocity-magnitude 
         1 -1.238224696E-02 -1.650000007E-03  0.000000000E+00  4.881056942E-03  4.636608904E+01  5.942600194E+02  0.000000000E+00 
         2 -1.231646687E-02 -1.649999949E-03  0.000000000E+00  2.381366312E-03  4.629333967E+01  5.942599823E+02  7.968883219E-01 
         3 -1.223752875E-02 -1.650000008E-03  0.000000000E+00  2.381366383E-03  4.611075994E+01  5.942600000E+02  7.968883456E-01 
         4 -1.214279805E-02 -1.649999951E-03  0.000000000E+00  2.381366312E-03  4.587367001E+01  5.942599823E+02  7.968883219E-01 
         5 -1.202911553E-02 -1.649999951E-03  0.000000000E+00  2.381366312E-03  4.559960998E+01  5.942599823E+02  7.968883219E-01 
         6 -1.189268779E-02 -1.650000001E-03  0.000000000E+00  2.381366383E-03  4.529712881E+01  5.942600000E+02  7.968883456E-01 
         7 -1.172896070E-02 -1.650000028E-03  0.000000000E+00  2.381366418E-03  4.497864036E+01  5.942600089E+02  7.968883575E-01 
         8 -1.153246726E-02 -1.649999968E-03  0.000000000E+00  2.381366347E-03  4.464724024E+01  5.942599911E+02  7.968883338E-01 
         9 -1.129664480E-02 -1.649999999E-03  0.000000000E+00  2.381366383E-03  4.414910584E+01  5.942600000E+02  7.968883456E-01 
        10 -1.104180182E-02 -1.649999952E-03  0.000000000E+00  2.381366312E-03  4.394293957E+01  5.942599823E+02  7.968883219E-01 
        11 -1.040965475E-02 -1.650000037E-03  0.000000000E+00  2.381366454E-03  4.344340479E+01  5.942600177E+02  7.968883694E-01 
        12 -9.727797567E-03 -1.649999974E-03  0.000000000E+00  2.381366347E-03  4.294851553E+01  5.942599911E+02  7.968883338E-01 
        13 -9.549135039E-03 -1.650000016E-03  0.000000000E+00  2.381366418E-03  4.282052386E+01  5.942600089E+02  7.968883575E-01 
        14 -9.257402967E-03 -1.649999996E-03  0.000000000E+00  2.381366383E-03  4.267139613E+01  5.942600000E+02  7.968883456E-01 
        15 -8.707201624E-03 -1.650000004E-03  0.000000000E+00  2.381366383E-03  4.239732389E+01  5.942600000E+02  7.968883456E-01 
        16 -8.327874969E-03 -1.650000002E-03  0.000000000E+00  2.381366383E-03  4.224962345E+01  5.942600000E+02  7.968883456E-01 
        17 -7.868819436E-03 -1.650000009E-03  0.000000000E+00  2.381366383E-03  4.207621115E+01  5.942600000E+02  7.968883456E-01 
        18 -7.309914944E-03 -1.650000005E-03  0.000000000E+00  2.381366383E-03  4.190573069E+01  5.942600000E+02  7.968883456E-01 
        19 -7.033056079E-03 -1.649999952E-03  0.000000000E+00  2.381366312E-03  4.182632891E+01  5.942599823E+02  7.968883219E-01 
        20 -6.774404682E-03 -1.650000049E-03  0.000000000E+00  2.381366454E-03  4.176678282E+01  5.942600177E+02  7.968883694E-01 
        21 -6.203718579E-03 -1.649999993E-03  0.000000000E+00  2.381366383E-03  4.164004804E+01  5.942600000E+02  7.968883456E-01 
        22 -5.764059055E-03 -1.650000057E-03  0.000000000E+00  2.381366454E-03  4.155549619E+01  5.942600177E+02  7.968883694E-01 
        23 -5.369046210E-03 -1.650000008E-03  0.000000000E+00  2.381366383E-03  4.148613487E+01  5.942600000E+02  7.968883456E-01 
        24 -4.703991919E-03 -1.649999998E-03  0.000000000E+00  2.381366383E-03  4.138739678E+01  5.942600000E+02  7.968883456E-01 
        25 -4.513416810E-03 -1.649999963E-03  0.000000000E+00  2.381366330E-03  4.136014535E+01  5.942599867E+02  7.968883278E-01 
        26 -4.409949101E-03 -1.650000002E-03  0.000000000E+00  2.381366383E-03  4.134758729E+01  5.942600000E+02  7.968883456E-01 
        27 -3.648226494E-03 -1.649999989E-03  0.000000000E+00  2.381366383E-03  4.126631777E+01  5.942600000E+02  7.968883456E-01 
        28 -3.090814824E-03 -1.649999990E-03  0.000000000E+00  2.381366383E-03  4.121524723E+01  5.942600000E+02  7.968883456E-01 
        29 -2.790049428E-03 -1.649999975E-03  0.000000000E+00  2.381366347E-03  4.119198513E+01  5.942599911E+02  7.968883338E-01 
        30 -2.326109559E-03 -1.650000046E-03  0.000000000E+00  2.381366454E-03  4.116257836E+01  5.942600177E+02  7.968883694E-01 
        31 -1.966101120E-03 -1.650000005E-03  0.000000000E+00  2.381366383E-03  4.114224807E+01  5.942600000E+02  7.968883456E-01 
        32 -1.649288649E-03 -1.650000004E-03  0.000000000E+00  2.381366383E-03  4.112925654E+01  5.942600000E+02  7.968883456E-01 
        33 -1.153324779E-03 -1.650000049E-03  0.000000000E+00  2.381366454E-03  4.111382613E+01  5.942600177E+02  7.968883694E-01 
        34 -7.314993435E-04 -1.649999992E-03  0.000000000E+00  2.381366383E-03  4.110526209E+01  5.942600000E+02  7.968883456E-01 
        35 -3.521276869E-04 -1.650000043E-03  0.000000000E+00  2.381366454E-03  4.110054287E+01  5.942600177E+02  7.968883694E-01 
        36  2.062356178E-04 -1.650000004E-03  0.000000000E+00  2.381366383E-03  4.110057370E+01  5.942600000E+02  7.968883456E-01 
        37  4.531226353E-04 -1.649999970E-03  0.000000000E+00  2.381366347E-03  4.110202012E+01  5.942599911E+02  7.968883338E-01 
        38  5.816147412E-04 -1.650000031E-03  0.000000000E+00  2.381366418E-03  4.110464842E+01  5.942600089E+02  7.968883575E-01 
        39  1.287381078E-03 -1.649999940E-03  0.000000000E+00  2.381366312E-03  4.112553503E+01  5.942599823E+02  7.968883219E-01 
        40  1.817906072E-03 -1.650000045E-03  0.000000000E+00  2.381366454E-03  4.114733064E+01  5.942600177E+02  7.968883694E-01 
        41  2.171618469E-03 -1.649999958E-03  0.000000000E+00  2.381366312E-03  4.116624659E+01  5.942599823E+02  7.968883219E-01 
        42  2.917015337E-03 -1.650000026E-03  0.000000000E+00  2.381366418E-03  4.121668174E+01  5.942600089E+02  7.968883575E-01 
        43  3.060138752E-03 -1.649999982E-03  0.000000000E+00  2.381366356E-03  4.122702709E+01  5.942599934E+02  7.968883367E-01 
        44  3.122627803E-03 -1.650000012E-03  0.000000000E+00  2.381366401E-03  4.123245616E+01  5.942600044E+02  7.968883516E-01 
        45  3.948750735E-03 -1.649999946E-03  0.000000000E+00  2.381366312E-03  4.131513739E+01  5.942599823E+02  7.968883219E-01 
        46  4.233552192E-03 -1.650000005E-03  0.000000000E+00  2.381366383E-03  4.134583450E+01  5.942600000E+02  7.968883456E-01 
        47  4.833507872E-03 -1.649999945E-03  0.000000000E+00  2.381366312E-03  4.142488573E+01  5.942599823E+02  7.968883219E-01 
        48  5.160210487E-03 -1.649999946E-03  0.000000000E+00  2.381366312E-03  4.147358897E+01  5.942599823E+02  7.968883219E-01 
        49  5.783248106E-03 -1.650000052E-03  0.000000000E+00  2.381366454E-03  4.158368653E+01  5.942600177E+02  7.968883694E-01 
        50  6.035984549E-03 -1.649999976E-03  0.000000000E+00  2.381366347E-03  4.163091678E+01  5.942599911E+02  7.968883338E-01 
        51  6.237400109E-03 -1.650000022E-03  0.000000000E+00  2.381366418E-03  4.167402435E+01  5.942600089E+02  7.968883575E-01 
        52  6.881112835E-03 -1.650000056E-03  0.000000000E+00  2.381366454E-03  4.181824135E+01  5.942600177E+02  7.968883694E-01 
        53  7.573470319E-03 -1.649999997E-03  0.000000000E+00  2.381366383E-03  4.200959688E+01  5.942600000E+02  7.968883456E-01 
        54  7.730792309E-03 -1.650000003E-03  0.000000000E+00  2.381366383E-03  4.205458548E+01  5.942600000E+02  7.968883456E-01 
        55  8.090815089E-03 -1.650000001E-03  0.000000000E+00  2.381366383E-03  4.218569859E+01  5.942600000E+02  7.968883456E-01 
        56  8.598449542E-03 -1.650000003E-03  0.000000000E+00  2.381366383E-03  4.237506113E+01  5.942600000E+02  7.968883456E-01 
        57  8.805739513E-03 -1.650000003E-03  0.000000000E+00  2.381366383E-03  4.247633733E+01  5.942600000E+02  7.968883456E-01 
        58  9.485623847E-03 -1.649999997E-03  0.000000000E+00  2.381366383E-03  4.282128796E+01  5.942600000E+02  7.968883456E-01 
        59  9.996717122E-03 -1.650000053E-03  0.000000000E+00  2.381366454E-03  4.318180284E+01  5.942600177E+02  7.968883694E-01 
        60  1.038796781E-02 -1.650000000E-03  0.000000000E+00  2.381366383E-03  4.347004005E+01  5.942600000E+02  7.968883456E-01 
        61  1.110225324E-02 -1.650000050E-03  0.000000000E+00  2.381366454E-03  4.404143431E+01  5.942600177E+02  7.968883694E-01 
        62  1.129715473E-02 -1.650000051E-03  0.000000000E+00  2.381366454E-03  4.420063276E+01  5.942600177E+02  7.968883694E-01 
        63  1.153289457E-02 -1.649999949E-03  0.000000000E+00  2.381366312E-03  4.471032076E+01  5.942599823E+02  7.968883219E-01 
        64  1.172932302E-02 -1.649999996E-03  0.000000000E+00  2.381366383E-03  4.505230376E+01  5.942600000E+02  7.968883456E-01 
        65  1.189299876E-02 -1.650000052E-03  0.000000000E+00  2.381366454E-03  4.538260957E+01  5.942600177E+02  7.968883694E-01 
        66  1.202938442E-02 -1.649999949E-03  0.000000000E+00  2.381366312E-03  4.569812826E+01  5.942599823E+02  7.968883219E-01 
        67  1.214303390E-02 -1.650000044E-03  0.000000000E+00  2.381366454E-03  4.598505166E+01  5.942600177E+02  7.968883694E-01 
        68  1.223773642E-02 -1.650000012E-03  0.000000000E+00  2.381366383E-03  4.623399726E+01  5.942600000E+02  7.968883456E-01 
        69  1.231665286E-02 -1.650000046E-03  0.000000000E+00  2.381366454E-03  4.642571069E+01  5.942600177E+02  7.968883694E-01 
        70  1.238241385E-02 -1.649999998E-03  0.000000000E+00  4.850646033E-03  4.650163113E+01  5.942600194E+02  0.000000000E+00 
        71  1.110245300E-02 -1.649999996E-03  9.860657205E-04  2.358468111E-03  4.369634437E+01  5.942599999E+02  7.984476374E-01 
        72  1.129741118E-02 -1.649999994E-03  9.860237298E-04  2.357832902E-03  4.384599308E+01  5.942599999E+02  7.986205872E-01 
        73  1.038815708E-02 -1.649999987E-03  9.861987235E-04  2.360708454E-03  4.316438547E+01  5.942600000E+02  7.978404352E-01 
        74  8.805574705E-03 -1.650000021E-03  9.864727040E-04  2.360772180E-03  4.235077605E+01  5.942600088E+02  7.972757512E-01 
        75  9.485717905E-03 -1.650000014E-03  9.863583903E-04  2.360827752E-03  4.264779836E+01  5.942600000E+02  7.974255815E-01 
        76  9.996766092E-03 -1.649999943E-03  9.862710097E-04  2.360762326E-03  4.293683104E+01  5.942599823E+02  7.976570363E-01 
        77  7.730630904E-03 -1.650000039E-03  9.866502961E-04  2.360715901E-03  4.197494901E+01  5.942600133E+02  7.971324436E-01 
        78  8.091212126E-03 -1.649999999E-03  9.865892570E-04  2.360732358E-03  4.209326170E+01  5.942600000E+02  7.971729751E-01 
        79  8.598423723E-03 -1.649999983E-03  9.865066297E-04  2.360756096E-03  4.226361020E+01  5.942599911E+02  7.972314293E-01 
        80  1.153309208E-02 -1.650000032E-03  9.865404178E-04  2.354345432E-03  4.407155149E+01  5.942600088E+02  7.989534956E-01 
        81  7.573036225E-03 -1.650000030E-03  9.866765862E-04  2.360711770E-03  4.193306223E+01  5.942600088E+02  7.971219174E-01 
        82  5.783215100E-03 -1.650000004E-03  9.869826635E-04  2.360677292E-03  4.153430383E+01  5.942600000E+02  7.970346361E-01 
        83  6.035506259E-03 -1.649999949E-03  9.869375075E-04  2.360680263E-03  4.157722684E+01  5.942599823E+02  7.970413955E-01 
        84  6.236595952E-03 -1.650000002E-03  9.869024133E-04  2.360683658E-03  4.161844357E+01  5.942600000E+02  7.970496394E-01 
        85  6.880806203E-03 -1.649999944E-03  9.867931445E-04  2.360694097E-03  4.175490749E+01  5.942599823E+02  7.970762812E-01 
        86  1.172947215E-02 -1.650000029E-03  9.869723181E-04  2.348114201E-03  4.428474394E+01  5.942600088E+02  7.992859243E-01 
        87  4.832561986E-03 -1.649999941E-03  9.871570102E-04  2.360667272E-03  4.138516788E+01  5.942599823E+02  7.970122922E-01 
        88  5.159606270E-03 -1.650000004E-03  9.870976822E-04  2.360670254E-03  4.143247583E+01  5.942600000E+02  7.970188485E-01 
        89  3.947734035E-03 -1.649999955E-03  9.873277149E-04  2.360660008E-03  4.127695865E+01  5.942599823E+02  7.969982405E-01 
        90  4.232942892E-03 -1.649999946E-03  9.872707921E-04  2.360662176E-03  4.130750527E+01  5.942599823E+02  7.970018017E-01 
        91  1.189310817E-02 -1.649999954E-03  9.873330752E-04  2.337239993E-03  4.448602819E+01  5.942599822E+02  7.995961620E-01 
        92  2.914795121E-03 -1.649999999E-03  9.875323253E-04  2.360652931E-03  4.118326050E+01  5.942600000E+02  7.969877555E-01 
        93  3.058937451E-03 -1.650000039E-03  9.875036176E-04  2.360653871E-03  4.119332457E+01  5.942600133E+02  7.969887597E-01 
        94  3.121859929E-03 -1.649999985E-03  9.874906111E-04  2.360654223E-03  4.119847080E+01  5.942599956E+02  7.969892747E-01 
        95  1.285714191E-03 -1.649999950E-03  9.878538017E-04  2.360643479E-03  4.109495671E+01  5.942599823E+02  7.969788829E-01 
        96  1.816924899E-03 -1.650000049E-03  9.877480907E-04  2.360646487E-03  4.111624847E+01  5.942600177E+02  7.969811829E-01 
        97  2.170191834E-03 -1.650000044E-03  9.876810309E-04  2.360648436E-03  4.113466157E+01  5.942600177E+02  7.969830047E-01 
        98  1.202946298E-02 -1.649999953E-03  9.876343321E-04  2.317364992E-03  4.467114326E+01  5.942599822E+02  7.998229705E-01 
        99  1.214308635E-02 -1.649999988E-03  9.878858045E-04  2.285841956E-03  4.482880726E+01  5.942600000E+02  7.994877750E-01 
       100 -3.542577826E-04 -1.650000007E-03  9.881497301E-04  2.360636145E-03  4.107042728E+01  5.942600000E+02  7.969765186E-01 
       101  2.031021205E-04 -1.649999952E-03  9.880507533E-04  2.360638377E-03  4.107084916E+01  5.942599823E+02  7.969765725E-01 
       102  4.512136878E-04 -1.649999952E-03  9.880065915E-04  2.360639441E-03  4.107230240E+01  5.942599823E+02  7.969765268E-01 
       103  5.803136392E-04 -1.649999997E-03  9.879823968E-04  2.360640146E-03  4.107495087E+01  5.942600000E+02  7.969770835E-01 
       104  1.223776813E-02 -1.650000009E-03  9.880956075E-04  2.631841701E-03  4.495435701E+01  5.942600010E+02  7.923057060E-01 
       105 -1.968786396E-03 -1.649999951E-03  9.883890366E-04  2.360631215E-03  4.111159571E+01  5.942599823E+02  7.969823073E-01 
       106 -1.652977683E-03 -1.649999996E-03  9.883474365E-04  2.360632023E-03  4.109885236E+01  5.942600000E+02  7.969807265E-01 
       107 -1.155706233E-03 -1.649999999E-03  9.882811823E-04  2.360633317E-03  4.108331343E+01  5.942600000E+02  7.969784244E-01 
       108 -7.328599352E-04 -1.649999953E-03  9.882105507E-04  2.360634731E-03  4.107506880E+01  5.942599823E+02  7.969772035E-01 
       109  1.231666688E-02 -1.649999993E-03  9.882706246E-04  7.922365581E-03  4.503506093E+01  5.942600071E+02  7.405101016E-01 
       110 -1.238224737E-02 -1.650000051E-03  9.884166253E-04  9.207085342E-03  4.502917376E+01  5.942600655E+02  0.000000000E+00 
       111 -1.231697450E-02 -1.649999999E-03  9.884940960E-04  8.010191417E-03  4.501451529E+01  5.942600068E+02  7.424656513E-01 
       112 -2.327584992E-03 -1.649999952E-03  9.884358288E-04  2.360630519E-03  4.113113726E+01  5.942599823E+02  7.969845864E-01 
       113  1.238241434E-02 -1.650000051E-03  9.884166253E-04  9.125775728E-03  4.504759304E+01  5.942600655E+02  0.000000000E+00 
       114 -1.223864467E-02 -1.650000051E-03  9.885870638E-04  2.644695088E-03  4.493105749E+01  5.942600187E+02  7.923447442E-01 
       115 -1.214464338E-02 -1.649999994E-03  9.886984689E-04  2.281140113E-03  4.480426777E+01  5.942600000E+02  7.992938190E-01 
       116 -4.517199587E-03 -1.649999963E-03  9.887236864E-04  2.360628920E-03  4.131954721E+01  5.942599867E+02  7.970078995E-01 
       117 -4.414670316E-03 -1.650000033E-03  9.887104562E-04  2.360628934E-03  4.130764613E+01  5.942600133E+02  7.970062746E-01 
       118 -3.651595001E-03 -1.650000048E-03  9.886098026E-04  2.360628993E-03  4.122996329E+01  5.942600177E+02  7.969961604E-01 
       119 -3.094823677E-03 -1.650000049E-03  9.885372614E-04  2.360629412E-03  4.118187573E+01  5.942600177E+02  7.969904292E-01 
       120 -2.793029229E-03 -1.649999951E-03  9.884973581E-04  2.360629683E-03  4.115967523E+01  5.942599823E+02  7.969878647E-01 
       121 -1.203183536E-02 -1.650000008E-03  9.888320552E-04  2.314012710E-03  4.464671978E+01  5.942599999E+02  7.996441749E-01 
       122 -5.373331867E-03 -1.650000002E-03  9.888373881E-04  2.360630913E-03  4.143924342E+01  5.942600000E+02  7.970258370E-01 
       123 -4.706021831E-03 -1.649999978E-03  9.887486688E-04  2.360629356E-03  4.134511639E+01  5.942599911E+02  7.970117902E-01 
       124 -1.189645587E-02 -1.650000052E-03  9.889921867E-04  2.335342819E-03  4.446168264E+01  5.942600176E+02  7.994461379E-01 
       125 -5.769750150E-03 -1.650000058E-03  9.888914969E-04  2.360632841E-03  4.150516223E+01  5.942600177E+02  7.970370348E-01 
       126 -7.038392819E-03 -1.649999978E-03  9.890637268E-04  2.360644276E-03  4.176152169E+01  5.942599911E+02  7.970887389E-01 
       127 -6.777981764E-03 -1.650000004E-03  9.890279205E-04  2.360641577E-03  4.170486275E+01  5.942600000E+02  7.970769564E-01 
       128 -6.208507374E-03 -1.649999986E-03  9.889500532E-04  2.360635541E-03  4.158419083E+01  5.942600000E+02  7.970511521E-01 
       129 -1.173398426E-02 -1.649999973E-03  9.891839625E-04  2.346938830E-03  4.426020232E+01  5.942599911E+02  7.991647543E-01 
       130 -7.317166953E-03 -1.650000004E-03  9.891033433E-04  2.360649942E-03  4.183508210E+01  5.942600000E+02  7.971080245E-01 
       131 -8.713682192E-03 -1.650000053E-03  9.893002256E-04  2.360698983E-03  4.227555824E+01  5.942600177E+02  7.972514364E-01 
       132 -8.332633425E-03 -1.649999946E-03  9.892454469E-04  2.360682347E-03  4.214360877E+01  5.942599823E+02  7.972049888E-01 
       133 -7.874710432E-03 -1.649999955E-03  9.891805000E-04  2.360662722E-03  4.199072836E+01  5.942599823E+02  7.971501654E-01 
       134 -1.153899587E-02 -1.649999945E-03  9.894136741E-04  2.353571881E-03  4.404572427E+01  5.942599822E+02  7.988609252E-01 
       135 -9.733691370E-03 -1.650000000E-03  9.894490791E-04  2.360705126E-03  4.274628900E+01  5.942600000E+02  7.975209501E-01 
       136 -9.556210586E-03 -1.650000046E-03  9.894235574E-04  2.360751691E-03  4.264400189E+01  5.942600177E+02  7.974403075E-01 
       137 -9.266405885E-03 -1.650000050E-03  9.893819229E-04  2.360733127E-03  4.251464533E+01  5.942600177E+02  7.973734927E-01 
       138 -1.041736222E-02 -1.649999955E-03  9.895527119E-04  2.360536480E-03  4.314845714E+01  5.942599822E+02  7.978330435E-01 
       139 -1.130497527E-02 -1.649999952E-03  9.896886455E-04  2.357308630E-03  4.381774391E+01  5.942599822E+02  7.985545597E-01 
       140 -1.104863784E-02 -1.650000007E-03  9.896471749E-04  2.358247932E-03  4.362118753E+01  5.942599999E+02  7.983431795E-01 
       141  1.110265300E-02 -1.649999997E-03  1.972140752E-03  2.341461905E-03  4.284217402E+01  5.942600000E+02  7.998668396E-01 
       142  1.129766783E-02 -1.649999997E-03  1.972047450E-03  2.339848060E-03  4.291248308E+01  5.942600000E+02  8.001557034E-01 
       143  1.038834619E-02 -1.649999990E-03  1.972439484E-03  2.347160568E-03  4.258882492E+01  5.942600000E+02  7.988487777E-01 
       144  9.996815845E-03 -1.649999998E-03  1.972603110E-03  2.347448861E-03  4.245335740E+01  5.942600000E+02  7.985150426E-01 
       145  9.485811853E-03 -1.649999993E-03  1.972800993E-03  2.347801026E-03  4.228125154E+01  5.942600000E+02  7.980929451E-01 
       146  8.598398070E-03 -1.649999998E-03  1.973137196E-03  2.347721961E-03  4.200978123E+01  5.942600000E+02  7.976976253E-01 
       147  8.805409659E-03 -1.650000022E-03  1.973060752E-03  2.347739259E-03  4.207122931E+01  5.942600088E+02  7.977876379E-01 
       148  1.153328860E-02 -1.649999970E-03  1.973080771E-03  2.332085365E-03  4.298681427E+01  5.942599911E+02  8.006618725E-01 
       149  8.091608969E-03 -1.650000003E-03  1.973322042E-03  2.347681765E-03  4.187736131E+01  5.942600000E+02  7.975703585E-01 
       150  7.572601876E-03 -1.650000025E-03  1.973515861E-03  2.347646387E-03  4.175048859E+01  5.942600088E+02  7.974580032E-01 
       151  7.730469083E-03 -1.650000002E-03  1.973458047E-03  2.347653759E-03  4.178514058E+01  5.942600000E+02  7.974819170E-01 
