nodenumber     x-coordinate     y-coordinate     z-coordinate turb-kinetic-energy         pressure      temperature velocity-magnitude 
         1 -1.238224696E-02 -1.650000007E-03  0.000000000E+00  3.767554524E-03  3.777419040E+01  5.942600146E+02  0.000000000E+00 
         2 -1.231646687E-02 -1.649999949E-03  0.000000000E+00  1.777530898E-03  3.771715952E+01  5.942599823E+02  6.884825527E-01 
         3 -1.223752875E-02 -1.650000008E-03  0.000000000E+00  1.777530951E-03  3.757445802E+01  5.942600000E+02  6.884825732E-01 
         4 -1.214279805E-02 -1.649999951E-03  0.000000000E+00  1.777530898E-03  3.738943565E+01  5.942599823E+02  6.884825527E-01 
         5 -1.202911553E-02 -1.649999951E-03  0.000000000E+00  1.777530898E-03  3.717508405E+01  5.942599823E+02  6.884825527E-01 
         6 -1.189268779E-02 -1.650000001E-03  0.000000000E+00  1.777530951E-03  3.693802520E+01  5.942600000E+02  6.884825732E-01 
         7 -1.172896070E-02 -1.650000028E-03  0.000000000E+00  1.777530977E-03  3.668836594E+01  5.942600089E+02  6.884825835E-01 
         8 -1.153246726E-02 -1.649999968E-03  0.000000000E+00  1.777530924E-03  3.642878191E+01  5.942599911E+02  6.884825629E-01 
         9 -1.129664480E-02 -1.649999999E-03  0.000000000E+00  1.777530951E-03  3.603912906E+01  5.942600000E+02  6.884825732E-01 
        10 -1.104180182E-02 -1.649999952E-03  0.000000000E+00  1.777530898E-03  3.587801672E+01  5.942599823E+02  6.884825527E-01 
        11 -1.040965475E-02 -1.650000037E-03  0.000000000E+00  1.777531004E-03  3.548761894E+01  5.942600177E+02  6.884825937E-01 
        12 -9.727797567E-03 -1.649999974E-03  0.000000000E+00  1.777530924E-03  3.510097709E+01  5.942599911E+02  6.884825629E-01 
        13 -9.549135039E-03 -1.650000016E-03  0.000000000E+00  1.777530977E-03  3.500097150E+01  5.942600089E+02  6.884825835E-01 
        14 -9.257402967E-03 -1.649999996E-03  0.000000000E+00  1.777530951E-03  3.488427506E+01  5.942600000E+02  6.884825732E-01 
        15 -8.707201624E-03 -1.650000004E-03  0.000000000E+00  1.777530951E-03  3.466978671E+01  5.942600000E+02  6.884825732E-01 
        16 -8.327874969E-03 -1.650000002E-03  0.000000000E+00  1.777530951E-03  3.455377033E+01  5.942600000E+02  6.884825732E-01 
        17 -7.868819436E-03 -1.650000009E-03  0.000000000E+00  1.777530951E-03  3.441755262E+01  5.942600000E+02  6.884825732E-01 
        18 -7.309914944E-03 -1.650000005E-03  0.000000000E+00  1.777530951E-03  3.428301725E+01  5.942600000E+02  6.884825732E-01 
        19 -7.033056079E-03 -1.649999952E-03  0.000000000E+00  1.777530898E-03  3.422030591E+01  5.942599823E+02  6.884825527E-01 
        20 -6.774404682E-03 -1.650000049E-03  0.000000000E+00  1.777531004E-03  3.417301933E+01  5.942600177E+02  6.884825937E-01 
        21 -6.203718579E-03 -1.649999993E-03  0.000000000E+00  1.777530951E-03  3.407239657E+01  5.942600000E+02  6.884825732E-01 
        22 -5.764059055E-03 -1.650000057E-03  0.000000000E+00  1.777531004E-03  3.400493490E+01  5.942600177E+02  6.884825937E-01 
        23 -5.369046210E-03 -1.650000008E-03  0.000000000E+00  1.777530951E-03  3.394948035E+01  5.942600000E+02  6.884825732E-01 
        24 -4.703991919E-03 -1.649999998E-03  0.000000000E+00  1.777530951E-03  3.387015043E+01  5.942600000E+02  6.884825732E-01 
        25 -4.513416810E-03 -1.649999963E-03  0.000000000E+00  1.777530911E-03  3.384824925E+01  5.942599867E+02  6.884825578E-01 
        26 -4.409949101E-03 -1.650000002E-03  0.000000000E+00  1.777530951E-03  3.383811591E+01  5.942600000E+02  6.884825732E-01 
        27 -3.648226494E-03 -1.649999989E-03  0.000000000E+00  1.777530951E-03  3.377225730E+01  5.942600000E+02  6.884825732E-01 
        28 -3.090814824E-03 -1.649999990E-03  0.000000000E+00  1.777530951E-03  3.373068090E+01  5.942600000E+02  6.884825732E-01 
        29 -2.790049428E-03 -1.649999975E-03  0.000000000E+00  1.777530924E-03  3.371163298E+01  5.942599911E+02  6.884825629E-01 
        30 -2.326109559E-03 -1.650000046E-03  0.000000000E+00  1.777531004E-03  3.368741070E+01  5.942600177E+02  6.884825937E-01 
        31 -1.966101120E-03 -1.650000005E-03  0.000000000E+00  1.777530951E-03  3.367059600E+01  5.942600000E+02  6.884825732E-01 
        32 -1.649288649E-03 -1.650000004E-03  0.000000000E+00  1.777530951E-03  3.365970899E+01  5.942600000E+02  6.884825732E-01 
        33 -1.153324779E-03 -1.650000049E-03  0.000000000E+00  1.777531004E-03  3.364656245E+01  5.942600177E+02  6.884825937E-01 
        34 -7.314993435E-04 -1.649999992E-03  0.000000000E+00  1.777530951E-03  3.363902839E+01  5.942600000E+02  6.884825732E-01 
        35 -3.521276869E-04 -1.650000043E-03  0.000000000E+00  1.777531004E-03  3.363463684E+01  5.942600177E+02  6.884825937E-01 
        36  2.062356178E-04 -1.650000004E-03  0.000000000E+00  1.777530951E-03  3.363377755E+01  5.942600000E+02  6.884825732E-01 
        37  4.531226353E-04 -1.649999970E-03  0.000000000E+00  1.777530924E-03  3.363454213E+01  5.942599911E+02  6.884825629E-01 
        38  5.816147412E-04 -1.650000031E-03  0.000000000E+00  1.777530977E-03  3.363643276E+01  5.942600089E+02  6.884825835E-01 
        39  1.287381078E-03 -1.649999940E-03  0.000000000E+00  1.777530898E-03  3.365195481E+01  5.942599823E+02  6.884825527E-01 
        40  1.817906072E-03 -1.650000045E-03  0.000000000E+00  1.777531004E-03  3.366847810E+01  5.942600177E+02  6.884825937E-01 
        41  2.171618469E-03 -1.649999958E-03  0.000000000E+00  1.777530898E-03  3.368298989E+01  5.942599823E+02  6.884825527E-01 
        42  2.917015337E-03 -1.650000026E-03  0.000000000E+00  1.777530977E-03  3.372199576E+01  5.942600089E+02  6.884825835E-01 
        43  3.060138752E-03 -1.649999982E-03  0.000000000E+00  1.777530931E-03  3.373001307E+01  5.942599934E+02  6.884825655E-01 
        44  3.122627803E-03 -1.650000012E-03  0.000000000E+00  1.777530964E-03  3.373423946E+01  5.942600044E+02  6.884825783E-01 
        45  3.948750735E-03 -1.649999946E-03  0.000000000E+00  1.777530898E-03  3.379876897E+01  5.942599823E+02  6.884825527E-01 
        46  4.233552192E-03 -1.650000005E-03  0.000000000E+00  1.777530951E-03  3.382277232E+01  5.942600000E+02  6.884825732E-01 
        47  4.833507872E-03 -1.649999945E-03  0.000000000E+00  1.777530898E-03  3.388469617E+01  5.942599823E+02  6.884825527E-01 
        48  5.160210487E-03 -1.649999946E-03  0.000000000E+00  1.777530898E-03  3.392290154E+01  5.942599823E+02  6.884825527E-01 
        49  5.783248106E-03 -1.650000052E-03  0.000000000E+00  1.777531004E-03  3.400926072E+01  5.942600177E+02  6.884825937E-01 
        50  6.035984549E-03 -1.649999976E-03  0.000000000E+00  1.777530924E-03  3.404631460E+01  5.942599911E+02  6.884825629E-01 
        51  6.237400109E-03 -1.650000022E-03  0.000000000E+00  1.777530977E-03  3.408012907E+01  5.942600089E+02  6.884825835E-01 
        52  6.881112835E-03 -1.650000056E-03  0.000000000E+00  1.777531004E-03  3.419331461E+01  5.942600177E+02  6.884825937E-01 
        53  7.573470319E-03 -1.649999997E-03  0.000000000E+00  1.777530951E-03  3.434337371E+01  5.942600000E+02  6.884825732E-01 
        54  7.730792309E-03 -1.650000003E-03  0.000000000E+00  1.777530951E-03  3.437866610E+01  5.942600000E+02  6.884825732E-01 
        55  8.090815089E-03 -1.650000001E-03  0.000000000E+00  1.777530951E-03  3.448140195E+01  5.942600000E+02  6.884825732E-01 
        56  8.598449542E-03 -1.650000003E-03  0.000000000E+00  1.777530951E-03  3.462978686E+01  5.942600000E+02  6.884825732E-01 
        57  8.805739513E-03 -1.650000003E-03  0.000000000E+00  1.777530951E-03  3.470905602E+01  5.942600000E+02  6.884825732E-01 
        58  9.485623847E-03 -1.649999997E-03  0.000000000E+00  1.777530951E-03  3.497909639E+01  5.942600000E+02  6.884825732E-01 
        59  9.996717122E-03 -1.650000053E-03  0.000000000E+00  1.777531004E-03  3.526109901E+01  5.942600177E+02  6.884825937E-01 
        60  1.038796781E-02 -1.650000000E-03  0.000000000E+00  1.777530951E-03  3.548657807E+01  5.942600000E+02  6.884825732E-01 
        61  1.110225324E-02 -1.650000050E-03  0.000000000E+00  1.777531004E-03  3.593347325E+01  5.942600177E+02  6.884825937E-01 
        62  1.129715473E-02 -1.650000051E-03  0.000000000E+00  1.777531004E-03  3.605798880E+01  5.942600177E+02  6.884825937E-01 
        63  1.153289457E-02 -1.649999949E-03  0.000000000E+00  1.777530898E-03  3.645672257E+01  5.942599823E+02  6.884825527E-01 
        64  1.172932302E-02 -1.649999996E-03  0.000000000E+00  1.777530951E-03  3.672444533E+01  5.942600000E+02  6.884825732E-01 
        65  1.189299876E-02 -1.650000052E-03  0.000000000E+00  1.777531004E-03  3.698314935E+01  5.942600177E+02  6.884825937E-01 
        66  1.202938442E-02 -1.649999949E-03  0.000000000E+00  1.777530898E-03  3.723013394E+01  5.942599823E+02  6.884825527E-01 
        67  1.214303390E-02 -1.650000044E-03  0.000000000E+00  1.777531004E-03  3.745415782E+01  5.942600177E+02  6.884825937E-01 
        68  1.223773642E-02 -1.650000012E-03  0.000000000E+00  1.777530951E-03  3.764798232E+01  5.942600000E+02  6.884825732E-01 
        69  1.231665286E-02 -1.650000046E-03  0.000000000E+00  1.777531004E-03  3.779748103E+01  5.942600177E+02  6.884825937E-01 
        70  1.238241385E-02 -1.649999998E-03  0.000000000E+00  3.742965192E-03  3.785689538E+01  5.942600146E+02  0.000000000E+00 
        71  1.110245300E-02 -1.649999996E-03  9.860657205E-04  1.760460285E-03  3.566348527E+01  5.942599999E+02  6.898953046E-01 
        72  1.129741118E-02 -1.649999994E-03  9.860237298E-04  1.759982875E-03  3.578048629E+01  5.942599999E+02  6.900521977E-01 
        73  1.038815708E-02 -1.649999987E-03  9.861987235E-04  1.762143421E-03  3.524759211E+01  5.942600000E+02  6.893444643E-01 
        74  8.805574705E-03 -1.650000021E-03  9.864727040E-04  1.762172550E-03  3.461089762E+01  5.942600088E+02  6.888331531E-01 
        75  9.485717905E-03 -1.650000014E-03  9.863583903E-04  1.762219057E-03  3.484351874E+01  5.942600000E+02  6.889686075E-01 
        76  9.996766092E-03 -1.649999943E-03  9.862710097E-04  1.762177650E-03  3.506959136E+01  5.942599823E+02  6.891783083E-01 
        77  7.730630904E-03 -1.650000039E-03  9.866502961E-04  1.762126384E-03  3.431628852E+01  5.942600133E+02  6.887038568E-01 
        78  8.091212126E-03 -1.649999999E-03  9.865892570E-04  1.762139767E-03  3.440906237E+01  5.942600000E+02  6.887403905E-01 
        79  8.598423723E-03 -1.649999983E-03  9.865066297E-04  1.762159081E-03  3.454264572E+01  5.942599911E+02  6.887930824E-01 
        80  1.153309208E-02 -1.650000032E-03  9.865404178E-04  1.757328053E-03  3.595688946E+01  5.942600088E+02  6.903544891E-01 
        81  7.573036225E-03 -1.650000030E-03  9.866765862E-04  1.762123051E-03  3.428340091E+01  5.942600088E+02  6.886943970E-01 
        82  5.783215100E-03 -1.650000004E-03  9.869826635E-04  1.762095331E-03  3.397033037E+01  5.942600000E+02  6.886160426E-01 
        83  6.035506259E-03 -1.649999949E-03  9.869375075E-04  1.762097703E-03  3.400402893E+01  5.942599823E+02  6.886220933E-01 
        84  6.236595952E-03 -1.650000002E-03  9.869024133E-04  1.762100422E-03  3.403638576E+01  5.942600000E+02  6.886294858E-01 
        85  6.880806203E-03 -1.649999944E-03  9.867931445E-04  1.762108802E-03  3.414357485E+01  5.942599823E+02  6.886533742E-01 
        86  1.172947215E-02 -1.650000029E-03  9.869723181E-04  1.752561992E-03  3.612378110E+01  5.942600088E+02  6.906565377E-01 
        87  4.832561986E-03 -1.649999941E-03  9.871570102E-04  1.762087383E-03  3.385326598E+01  5.942599823E+02  6.885960460E-01 
        88  5.159606270E-03 -1.650000004E-03  9.870976822E-04  1.762089736E-03  3.389040162E+01  5.942600000E+02  6.886019135E-01 
        89  3.947734035E-03 -1.649999955E-03  9.873277149E-04  1.762081676E-03  3.376849655E+01  5.942599823E+02  6.885834783E-01 
        90  4.232942892E-03 -1.649999946E-03  9.872707921E-04  1.762083372E-03  3.379239421E+01  5.942599823E+02  6.885866606E-01 
        91  1.189310817E-02 -1.649999954E-03  9.873330752E-04  1.744188656E-03  3.628137015E+01  5.942599822E+02  6.909385490E-01 
        92  2.914795121E-03 -1.649999999E-03  9.875323253E-04  1.762076175E-03  3.369541211E+01  5.942600000E+02  6.885741018E-01 
        93  3.058937451E-03 -1.650000039E-03  9.875036176E-04  1.762076898E-03  3.370321421E+01  5.942600133E+02  6.885750007E-01 
        94  3.121859929E-03 -1.649999985E-03  9.874906111E-04  1.762077172E-03  3.370722080E+01  5.942599956E+02  6.885754614E-01 
        95  1.285714191E-03 -1.649999950E-03  9.878538017E-04  1.762068950E-03  3.362753949E+01  5.942599823E+02  6.885661451E-01 
        96  1.816924899E-03 -1.650000049E-03  9.877480907E-04  1.762071230E-03  3.364368805E+01  5.942600177E+02  6.885682191E-01 
        97  2.170191834E-03 -1.650000044E-03  9.876810309E-04  1.762072717E-03  3.365781506E+01  5.942600177E+02  6.885698452E-01 
        98  1.202946298E-02 -1.649999953E-03  9.876343321E-04  1.728749679E-03  3.642612267E+01  5.942599822E+02  6.911434218E-01 
        99  1.214308635E-02 -1.649999988E-03  9.878858045E-04  1.705572694E-03  3.654908617E+01  5.942600000E+02  6.908174316E-01 
       100 -3.542577826E-04 -1.650000007E-03  9.881497301E-04  1.762063466E-03  3.361062983E+01  5.942600000E+02  6.885640043E-01 
       101  2.031021205E-04 -1.649999952E-03  9.880507533E-04  1.762065118E-03  3.361005460E+01  5.942599823E+02  6.885640603E-01 
       102  4.512136878E-04 -1.649999952E-03  9.880065915E-04  1.762065908E-03  3.361080625E+01  5.942599823E+02  6.885639752E-01 
       103  5.803136392E-04 -1.649999997E-03  9.879823968E-04  1.762066437E-03  3.361271226E+01  5.942600000E+02  6.885645150E-01 
       104  1.223776813E-02 -1.650000009E-03  9.880956075E-04  2.005961318E-03  3.664668107E+01  5.942600008E+02  6.841988752E-01 
       105 -1.968786396E-03 -1.649999951E-03  9.883890366E-04  1.762059932E-03  3.364623262E+01  5.942599823E+02  6.885691358E-01 
       106 -1.652977683E-03 -1.649999996E-03  9.883474365E-04  1.762060496E-03  3.363552701E+01  5.942600000E+02  6.885677633E-01 
       107 -1.155706233E-03 -1.649999999E-03  9.882811823E-04  1.762061411E-03  3.362226560E+01  5.942600000E+02  6.885658033E-01 
       108 -7.328599352E-04 -1.649999953E-03  9.882105507E-04  1.762062434E-03  3.361497248E+01  5.942599823E+02  6.885646415E-01 
       109  1.231666688E-02 -1.649999993E-03  9.882706246E-04  6.174474163E-03  3.670946100E+01  5.942600055E+02  6.375481799E-01 
       110 -1.238224737E-02 -1.650000051E-03  9.884166253E-04  7.185619010E-03  3.672528993E+01  5.942600535E+02  0.000000000E+00 
       111 -1.231697450E-02 -1.649999999E-03  9.884940960E-04  6.244558335E-03  3.671383497E+01  5.942600053E+02  6.392731510E-01 
       112 -2.327584992E-03 -1.649999952E-03  9.884358288E-04  1.762059466E-03  3.366243901E+01  5.942599823E+02  6.885711231E-01 
       113  1.238241434E-02 -1.650000051E-03  9.884166253E-04  7.120735271E-03  3.671921790E+01  5.942600536E+02  0.000000000E+00 
       114 -1.223864467E-02 -1.650000051E-03  9.885870638E-04  2.017187856E-03  3.664886013E+01  5.942600185E+02  6.842396270E-01 
       115 -1.214464338E-02 -1.649999994E-03  9.886984689E-04  1.702226108E-03  3.655055651E+01  5.942600000E+02  6.906504349E-01 
       116 -4.517199587E-03 -1.649999963E-03  9.887236864E-04  1.762058802E-03  3.381625996E+01  5.942599867E+02  6.885915443E-01 
       117 -4.414670316E-03 -1.650000033E-03  9.887104562E-04  1.762058777E-03  3.380662888E+01  5.942600133E+02  6.885901175E-01 
       118 -3.651595001E-03 -1.650000048E-03  9.886098026E-04  1.762058601E-03  3.374349649E+01  5.942600177E+02  6.885812486E-01 
       119 -3.094823677E-03 -1.650000049E-03  9.885372614E-04  1.762058778E-03  3.370423632E+01  5.942600177E+02  6.885762238E-01 
       120 -2.793029229E-03 -1.649999951E-03  9.884973581E-04  1.762058920E-03  3.368600790E+01  5.942599823E+02  6.885739775E-01 
       121 -1.203183536E-02 -1.650000008E-03  9.888320552E-04  1.726134756E-03  3.642762965E+01  5.942599999E+02  6.909920228E-01 
       122 -5.373331867E-03 -1.650000002E-03  9.888373881E-04  1.762060662E-03  3.391270870E+01  5.942600000E+02  6.886072856E-01 
       123 -4.706021831E-03 -1.649999978E-03  9.887486688E-04  1.762059208E-03  3.383686947E+01  5.942599911E+02  6.885949574E-01 
       124 -1.189645587E-02 -1.650000052E-03  9.889921867E-04  1.742719133E-03  3.628301842E+01  5.942600176E+02  6.908099628E-01 
       125 -5.769750150E-03 -1.650000058E-03  9.888914969E-04  1.762062323E-03  3.396556444E+01  5.942600177E+02  6.886171183E-01 
       126 -7.038392819E-03 -1.649999978E-03  9.890637268E-04  1.762071854E-03  3.416999018E+01  5.942599911E+02  6.886627544E-01 
       127 -6.777981764E-03 -1.650000004E-03  9.890279205E-04  1.762069618E-03  3.412487384E+01  5.942600000E+02  6.886523481E-01 
       128 -6.208507374E-03 -1.649999986E-03  9.889500532E-04  1.762064629E-03  3.402880122E+01  5.942600000E+02  6.886295444E-01 
       129 -1.173398426E-02 -1.649999973E-03  9.891839625E-04  1.751658488E-03  3.612517703E+01  5.942599911E+02  6.905524618E-01 
       130 -7.317166953E-03 -1.650000004E-03  9.891033433E-04  1.762076465E-03  3.422822478E+01  5.942600000E+02  6.886799110E-01 
       131 -8.713682192E-03 -1.650000053E-03  9.893002256E-04  1.762116443E-03  3.457541971E+01  5.942600177E+02  6.888084293E-01 
       132 -8.332633425E-03 -1.649999946E-03  9.892454469E-04  1.762102883E-03  3.447160926E+01  5.942599823E+02  6.887667148E-01 
       133 -7.874710432E-03 -1.649999955E-03  9.891805000E-04  1.762086863E-03  3.435132812E+01  5.942599823E+02  6.887174587E-01 
       134 -1.153899587E-02 -1.649999945E-03  9.894136741E-04  1.756736999E-03  3.595745618E+01  5.942599822E+02  6.902752013E-01 
       135 -9.733691370E-03 -1.650000000E-03  9.894490791E-04  1.762129612E-03  3.494362675E+01  5.942600000E+02  6.890530710E-01 
       136 -9.556210586E-03 -1.650000046E-03  9.894235574E-04  1.762161850E-03  3.486381788E+01  5.942600177E+02  6.889796000E-01 
       137 -9.266405885E-03 -1.650000050E-03  9.893819229E-04  1.762145833E-03  3.476257393E+01  5.942600177E+02  6.889190386E-01 
       138 -1.041736222E-02 -1.649999955E-03  9.895527119E-04  1.762013649E-03  3.525738546E+01  5.942599823E+02  6.893374178E-01 
       139 -1.130497527E-02 -1.649999952E-03  9.896886455E-04  1.759584057E-03  3.577935061E+01  5.942599822E+02  6.899957436E-01 
       140 -1.104863784E-02 -1.650000007E-03  9.896471749E-04  1.760291004E-03  3.562606792E+01  5.942600000E+02  6.898028583E-01 
       141  1.110265300E-02 -1.649999997E-03  1.972140752E-03  1.747736050E-03  3.499558845E+01  5.942600000E+02  6.911799009E-01 
       142  1.129766783E-02 -1.649999997E-03  1.972047450E-03  1.746516024E-03  3.505042503E+01  5.942600000E+02  6.914419510E-01 
       143  1.038834619E-02 -1.649999990E-03  1.972439484E-03  1.752043316E-03  3.479800550E+01  5.942600000E+02  6.902563315E-01 
       144  9.996815845E-03 -1.649999998E-03  1.972603110E-03  1.752252600E-03  3.469197256E+01  5.942600000E+02  6.899541130E-01 
       145  9.485811853E-03 -1.649999993E-03  1.972800993E-03  1.752508069E-03  3.455728608E+01  5.942600000E+02  6.895718786E-01 
       146  8.598398070E-03 -1.649999998E-03  1.973137196E-03  1.752439016E-03  3.434420722E+01  5.942600000E+02  6.892149495E-01 
       147  8.805409659E-03 -1.650000022E-03  1.973060752E-03  1.752454181E-03  3.439242626E+01  5.942600088E+02  6.892962234E-01 
       148  1.153328860E-02 -1.649999970E-03  1.973080771E-03  1.740604992E-03  3.510820218E+01  5.942599911E+02  6.919018196E-01 
       149  8.091608969E-03 -1.650000003E-03  1.973322042E-03  1.752406337E-03  3.424007470E+01  5.942600000E+02  6.891004140E-01 
       150  7.572601876E-03 -1.650000025E-03  1.973515861E-03  1.752377654E-03  3.414027131E+01  5.942600088E+02  6.889993679E-01 
       151  7.730469083E-03 -1.650000002E-03  1.973458047E-03  1.752383586E-03  3.416755673E+01  5.942600000E+02  6.890208285E-01 
