nodenumber     x-coordinate     y-coordinate     z-coordinate turb-kinetic-energy         pressure      temperature velocity-magnitude 
         1 -1.238224696E-02 -1.650000007E-03  0.000000000E+00  4.662036104E-03  4.465968802E+01  5.942600185E+02  0.000000000E+00 
         2 -1.231646687E-02 -1.649999949E-03  0.000000000E+00  2.261249736E-03  4.459000935E+01  5.942599823E+02  7.765306893E-01 
         3 -1.223752875E-02 -1.650000008E-03  0.000000000E+00  2.261249803E-03  4.441523187E+01  5.942600000E+02  7.765307125E-01 
         4 -1.214279805E-02 -1.649999951E-03  0.000000000E+00  2.261249736E-03  4.418834615E+01  5.942599823E+02  7.765306893E-01 
         5 -1.202911553E-02 -1.649999951E-03  0.000000000E+00  2.261249736E-03  4.392597760E+01  5.942599823E+02  7.765306893E-01 
         6 -1.189268779E-02 -1.650000001E-03  0.000000000E+00  2.261249803E-03  4.363628691E+01  5.942600000E+02  7.765307125E-01 
         7 -1.172896070E-02 -1.650000028E-03  0.000000000E+00  2.261249837E-03  4.333124945E+01  5.942600089E+02  7.765307241E-01 
         8 -1.153246726E-02 -1.649999968E-03  0.000000000E+00  2.261249769E-03  4.301387863E+01  5.942599911E+02  7.765307009E-01 
         9 -1.129664480E-02 -1.649999999E-03  0.000000000E+00  2.261249803E-03  4.253692968E+01  5.942600000E+02  7.765307125E-01 
        10 -1.104180182E-02 -1.649999952E-03  0.000000000E+00  2.261249736E-03  4.233956874E+01  5.942599823E+02  7.765306893E-01 
        11 -1.040965475E-02 -1.650000037E-03  0.000000000E+00  2.261249870E-03  4.186136655E+01  5.942600177E+02  7.765307356E-01 
        12 -9.727797567E-03 -1.649999974E-03  0.000000000E+00  2.261249769E-03  4.138771215E+01  5.942599911E+02  7.765307009E-01 
        13 -9.549135039E-03 -1.650000016E-03  0.000000000E+00  2.261249837E-03  4.126520999E+01  5.942600089E+02  7.765307241E-01 
        14 -9.257402967E-03 -1.649999996E-03  0.000000000E+00  2.261249803E-03  4.112250244E+01  5.942600000E+02  7.765307125E-01 
        15 -8.707201624E-03 -1.650000004E-03  0.000000000E+00  2.261249803E-03  4.086023178E+01  5.942600000E+02  7.765307125E-01 
        16 -8.327874969E-03 -1.650000002E-03  0.000000000E+00  2.261249803E-03  4.071889160E+01  5.942600000E+02  7.765307125E-01 
        17 -7.868819436E-03 -1.650000009E-03  0.000000000E+00  2.261249803E-03  4.055294013E+01  5.942600000E+02  7.765307125E-01 
        18 -7.309914944E-03 -1.650000005E-03  0.000000000E+00  2.261249803E-03  4.038976457E+01  5.942600000E+02  7.765307125E-01 
        19 -7.033056079E-03 -1.649999952E-03  0.000000000E+00  2.261249736E-03  4.031376248E+01  5.942599823E+02  7.765306893E-01 
        20 -6.774404682E-03 -1.650000049E-03  0.000000000E+00  2.261249870E-03  4.025674291E+01  5.942600177E+02  7.765307356E-01 
        21 -6.203718579E-03 -1.649999993E-03  0.000000000E+00  2.261249803E-03  4.013538179E+01  5.942600000E+02  7.765307125E-01 
        22 -5.764059055E-03 -1.650000057E-03  0.000000000E+00  2.261249870E-03  4.005437308E+01  5.942600177E+02  7.765307356E-01 
        23 -5.369046210E-03 -1.650000008E-03  0.000000000E+00  2.261249803E-03  3.998790479E+01  5.942600000E+02  7.765307125E-01 
        24 -4.703991919E-03 -1.649999998E-03  0.000000000E+00  2.261249803E-03  3.989321917E+01  5.942600000E+02  7.765307125E-01 
        25 -4.513416810E-03 -1.649999963E-03  0.000000000E+00  2.261249752E-03  3.986708403E+01  5.942599867E+02  7.765306951E-01 
        26 -4.409949101E-03 -1.650000002E-03  0.000000000E+00  2.261249803E-03  3.985503166E+01  5.942600000E+02  7.765307125E-01 
        27 -3.648226494E-03 -1.649999989E-03  0.000000000E+00  2.261249803E-03  3.977698531E+01  5.942600000E+02  7.765307125E-01 
        28 -3.090814824E-03 -1.649999990E-03  0.000000000E+00  2.261249803E-03  3.972789340E+01  5.942600000E+02  7.765307125E-01 
        29 -2.790049428E-03 -1.649999975E-03  0.000000000E+00  2.261249769E-03  3.970550908E+01  5.942599911E+02  7.765307009E-01 
        30 -2.326109559E-03 -1.650000046E-03  0.000000000E+00  2.261249870E-03  3.967717406E+01  5.942600177E+02  7.765307356E-01 
        31 -1.966101120E-03 -1.650000005E-03  0.000000000E+00  2.261249803E-03  3.965756784E+01  5.942600000E+02  7.765307125E-01 
        32 -1.649288649E-03 -1.650000004E-03  0.000000000E+00  2.261249803E-03  3.964500141E+01  5.942600000E+02  7.765307125E-01 
        33 -1.153324779E-03 -1.650000049E-03  0.000000000E+00  2.261249870E-03  3.963002339E+01  5.942600177E+02  7.765307356E-01 
        34 -7.314993435E-04 -1.649999992E-03  0.000000000E+00  2.261249803E-03  3.962164685E+01  5.942600000E+02  7.765307125E-01 
        35 -3.521276869E-04 -1.650000043E-03  0.000000000E+00  2.261249870E-03  3.961697011E+01  5.942600177E+02  7.765307356E-01 
        36  2.062356178E-04 -1.650000004E-03  0.000000000E+00  2.261249803E-03  3.961677066E+01  5.942600000E+02  7.765307125E-01 
        37  4.531226353E-04 -1.649999970E-03  0.000000000E+00  2.261249769E-03  3.961805473E+01  5.942599911E+02  7.765307009E-01 
        38  5.816147412E-04 -1.650000031E-03  0.000000000E+00  2.261249837E-03  3.962051671E+01  5.942600089E+02  7.765307241E-01 
        39  1.287381078E-03 -1.649999940E-03  0.000000000E+00  2.261249736E-03  3.964021356E+01  5.942599823E+02  7.765306893E-01 
        40  1.817906072E-03 -1.650000045E-03  0.000000000E+00  2.261249870E-03  3.966084974E+01  5.942600177E+02  7.765307356E-01 
        41  2.171618469E-03 -1.649999958E-03  0.000000000E+00  2.261249736E-03  3.967880803E+01  5.942599823E+02  7.765306893E-01 
        42  2.917015337E-03 -1.650000026E-03  0.000000000E+00  2.261249837E-03  3.972677341E+01  5.942600089E+02  7.765307241E-01 
        43  3.060138752E-03 -1.649999982E-03  0.000000000E+00  2.261249778E-03  3.973661616E+01  5.942599934E+02  7.765307038E-01 
        44  3.122627803E-03 -1.650000012E-03  0.000000000E+00  2.261249820E-03  3.974178707E+01  5.942600044E+02  7.765307183E-01 
        45  3.948750735E-03 -1.649999946E-03  0.000000000E+00  2.261249736E-03  3.982059318E+01  5.942599823E+02  7.765306893E-01 
        46  4.233552192E-03 -1.650000005E-03  0.000000000E+00  2.261249803E-03  3.984986658E+01  5.942600000E+02  7.765307125E-01 
        47  4.833507872E-03 -1.649999945E-03  0.000000000E+00  2.261249736E-03  3.992530231E+01  5.942599823E+02  7.765306893E-01 
        48  5.160210487E-03 -1.649999946E-03  0.000000000E+00  2.261249736E-03  3.997179353E+01  5.942599823E+02  7.765306893E-01 
        49  5.783248106E-03 -1.650000052E-03  0.000000000E+00  2.261249870E-03  4.007692741E+01  5.942600177E+02  7.765307356E-01 
        50  6.035984549E-03 -1.649999976E-03  0.000000000E+00  2.261249769E-03  4.012203265E+01  5.942599911E+02  7.765307009E-01 
        51  6.237400109E-03 -1.650000022E-03  0.000000000E+00  2.261249837E-03  4.016321834E+01  5.942600089E+02  7.765307241E-01 
        52  6.881112835E-03 -1.650000056E-03  0.000000000E+00  2.261249870E-03  4.030101239E+01  5.942600177E+02  7.765307356E-01 
        53  7.573470319E-03 -1.649999997E-03  0.000000000E+00  2.261249803E-03  4.048391021E+01  5.942600000E+02  7.765307125E-01 
        54  7.730792309E-03 -1.650000003E-03  0.000000000E+00  2.261249803E-03  4.052691226E+01  5.942600000E+02  7.765307125E-01 
        55  8.090815089E-03 -1.650000001E-03  0.000000000E+00  2.261249803E-03  4.065227703E+01  5.942600000E+02  7.765307125E-01 
        56  8.598449542E-03 -1.650000003E-03  0.000000000E+00  2.261249803E-03  4.083334116E+01  5.942600000E+02  7.765307125E-01 
        57  8.805739513E-03 -1.650000003E-03  0.000000000E+00  2.261249803E-03  4.093021090E+01  5.942600000E+02  7.765307125E-01 
        58  9.485623847E-03 -1.649999997E-03  0.000000000E+00  2.261249803E-03  4.126016167E+01  5.942600000E+02  7.765307125E-01 
        59  9.996717122E-03 -1.650000053E-03  0.000000000E+00  2.261249870E-03  4.160511446E+01  5.942600177E+02  7.765307356E-01 
        60  1.038796781E-02 -1.650000000E-03  0.000000000E+00  2.261249803E-03  4.188091508E+01  5.942600000E+02  7.765307125E-01 
        61  1.110225324E-02 -1.650000050E-03  0.000000000E+00  2.261249870E-03  4.242778909E+01  5.942600177E+02  7.765307356E-01 
        62  1.129715473E-02 -1.650000051E-03  0.000000000E+00  2.261249870E-03  4.258015811E+01  5.942600177E+02  7.765307356E-01 
        63  1.153289457E-02 -1.649999949E-03  0.000000000E+00  2.261249736E-03  4.306807173E+01  5.942599823E+02  7.765306893E-01 
        64  1.172932302E-02 -1.649999996E-03  0.000000000E+00  2.261249803E-03  4.339550782E+01  5.942600000E+02  7.765307125E-01 
        65  1.189299876E-02 -1.650000052E-03  0.000000000E+00  2.261249870E-03  4.371179681E+01  5.942600177E+02  7.765307356E-01 
        66  1.202938442E-02 -1.649999949E-03  0.000000000E+00  2.261249736E-03  4.401390394E+01  5.942599823E+02  7.765306893E-01 
        67  1.214303390E-02 -1.650000044E-03  0.000000000E+00  2.261249870E-03  4.428851500E+01  5.942600177E+02  7.765307356E-01 
        68  1.223773642E-02 -1.650000012E-03  0.000000000E+00  2.261249803E-03  4.452666345E+01  5.942600000E+02  7.765307125E-01 
        69  1.231665286E-02 -1.650000046E-03  0.000000000E+00  2.261249870E-03  4.471011260E+01  5.942600177E+02  7.765307356E-01 
        70  1.238241385E-02 -1.649999998E-03  0.000000000E+00  4.632736389E-03  4.478280557E+01  5.942600185E+02  0.000000000E+00 
        71  1.110245300E-02 -1.649999996E-03  9.860657205E-04  2.239511369E-03  4.209726063E+01  5.942599999E+02  7.780631613E-01 
        72  1.129741118E-02 -1.649999994E-03  9.860237298E-04  2.238907536E-03  4.224046279E+01  5.942599999E+02  7.782331464E-01 
        73  1.038815708E-02 -1.649999987E-03  9.861987235E-04  2.241640910E-03  4.158822433E+01  5.942600000E+02  7.774663633E-01 
        74  8.805574705E-03 -1.650000021E-03  9.864727040E-04  2.241697236E-03  4.081000012E+01  5.942600088E+02  7.769113438E-01 
        75  9.485717905E-03 -1.650000014E-03  9.863583903E-04  2.241751142E-03  4.109404911E+01  5.942600000E+02  7.770586089E-01 
        76  9.996766092E-03 -1.649999943E-03  9.862710097E-04  2.241690704E-03  4.137053952E+01  5.942599823E+02  7.772861038E-01 
        77  7.730630904E-03 -1.650000039E-03  9.866502961E-04  2.241642870E-03  4.045068110E+01  5.942600133E+02  7.767704993E-01 
        78  8.091212126E-03 -1.649999999E-03  9.865892570E-04  2.241658740E-03  4.056378777E+01  5.942600000E+02  7.768103329E-01 
        79  8.598423723E-03 -1.649999983E-03  9.865066297E-04  2.241681632E-03  4.072664429E+01  5.942599911E+02  7.768677806E-01 
        80  1.153309208E-02 -1.650000032E-03  9.865404178E-04  2.235584847E-03  4.245636620E+01  5.942600088E+02  7.785603678E-01 
        81  7.573036225E-03 -1.650000030E-03  9.866765862E-04  2.241638896E-03  4.041064925E+01  5.942600088E+02  7.767601567E-01 
        82  5.783215100E-03 -1.650000004E-03  9.869826635E-04  2.241605756E-03  4.002966177E+01  5.942600000E+02  7.766744067E-01 
        83  6.035506259E-03 -1.649999949E-03  9.869375075E-04  2.241608605E-03  4.007064849E+01  5.942599823E+02  7.766810459E-01 
        84  6.236595952E-03 -1.650000002E-03  9.869024133E-04  2.241611865E-03  4.011002218E+01  5.942600000E+02  7.766891445E-01 
        85  6.880806203E-03 -1.649999944E-03  9.867931445E-04  2.241621892E-03  4.024039204E+01  5.942599823E+02  7.767153165E-01 
        86  1.172947215E-02 -1.650000029E-03  9.869723181E-04  2.229643133E-03  4.266049013E+01  5.942600088E+02  7.788871677E-01 
        87  4.832561986E-03 -1.649999941E-03  9.871570102E-04  2.241596157E-03  3.988728135E+01  5.942599823E+02  7.766524629E-01 
        88  5.159606270E-03 -1.650000004E-03  9.870976822E-04  2.241599011E-03  3.993243616E+01  5.942600000E+02  7.766589008E-01 
        89  3.947734035E-03 -1.649999955E-03  9.873277149E-04  2.241589212E-03  3.978405317E+01  5.942599823E+02  7.766386656E-01 
        90  4.232942892E-03 -1.649999946E-03  9.872707921E-04  2.241591283E-03  3.981317950E+01  5.942599823E+02  7.766421619E-01 
        91  1.189310817E-02 -1.649999954E-03  9.873330752E-04  2.219262191E-03  4.285322882E+01  5.942599822E+02  7.791922167E-01 
        92  2.914795121E-03 -1.649999999E-03  9.875323253E-04  2.241582459E-03  3.969478135E+01  5.942600000E+02  7.766283712E-01 
        93  3.058937451E-03 -1.650000039E-03  9.875036176E-04  2.241583355E-03  3.970435522E+01  5.942600133E+02  7.766293574E-01 
        94  3.121859929E-03 -1.649999985E-03  9.874906111E-04  2.241583690E-03  3.970925577E+01  5.942599956E+02  7.766298631E-01 
        95  1.285714191E-03 -1.649999950E-03  9.878538017E-04  2.241573460E-03  3.961093490E+01  5.942599823E+02  7.766196543E-01 
        96  1.816924899E-03 -1.650000049E-03  9.877480907E-04  2.241576321E-03  3.963109181E+01  5.942600177E+02  7.766219150E-01 
        97  2.170191834E-03 -1.650000044E-03  9.876810309E-04  2.241578176E-03  3.964856909E+01  5.942600177E+02  7.766237040E-01 
        98  1.202946298E-02 -1.649999953E-03  9.876343321E-04  2.200259539E-03  4.303045219E+01  5.942599822E+02  7.794151169E-01 
        99  1.214308635E-02 -1.649999988E-03  9.878858045E-04  2.170364844E-03  4.318132116E+01  5.942600000E+02  7.790818379E-01 
       100 -3.542577826E-04 -1.650000007E-03  9.881497301E-04  2.241566498E-03  3.958815373E+01  5.942600000E+02  7.766173133E-01 
       101  2.031021205E-04 -1.649999952E-03  9.880507533E-04  2.241568614E-03  3.958831988E+01  5.942599823E+02  7.766173734E-01 
       102  4.512136878E-04 -1.649999952E-03  9.880065915E-04  2.241569623E-03  3.958960456E+01  5.942599823E+02  7.766173227E-01 
       103  5.803136392E-04 -1.649999997E-03  9.879823968E-04  2.241570293E-03  3.959208479E+01  5.942600000E+02  7.766178780E-01 
       104  1.223776813E-02 -1.650000009E-03  9.880956075E-04  2.507799917E-03  4.330139295E+01  5.942600009E+02  7.720042437E-01 
       105 -1.968786396E-03 -1.649999951E-03  9.883890366E-04  2.241561840E-03  3.962825371E+01  5.942599823E+02  7.766229592E-01 
       106 -1.652977683E-03 -1.649999996E-03  9.883474365E-04  2.241562601E-03  3.961592198E+01  5.942600000E+02  7.766214212E-01 
       107 -1.155706233E-03 -1.649999999E-03  9.882811823E-04  2.241563822E-03  3.960083383E+01  5.942600000E+02  7.766191943E-01 
       108 -7.328599352E-04 -1.649999953E-03  9.882105507E-04  2.241565159E-03  3.959275974E+01  5.942599823E+02  7.766179858E-01 
       109  1.231666688E-02 -1.649999993E-03  9.882706246E-04  7.579950876E-03  4.337859051E+01  5.942600068E+02  7.211585973E-01 
       110 -1.238224737E-02 -1.650000051E-03  9.884166253E-04  8.811406238E-03  4.337903519E+01  5.942600631E+02  0.000000000E+00 
       111 -1.231697450E-02 -1.649999999E-03  9.884940960E-04  7.664328723E-03  4.336500224E+01  5.942600065E+02  7.230703872E-01 
       112 -2.327584992E-03 -1.649999952E-03  9.884358288E-04  2.241561187E-03  3.964710758E+01  5.942599823E+02  7.766251801E-01 
       113  1.238241434E-02 -1.650000051E-03  9.884166253E-04  8.733290873E-03  4.339058006E+01  5.942600632E+02  0.000000000E+00 
       114 -1.223864467E-02 -1.650000051E-03  9.885870638E-04  2.520349439E-03  4.328516067E+01  5.942600186E+02  7.720428715E-01 
       115 -1.214464338E-02 -1.649999994E-03  9.886984689E-04  2.165928233E-03  4.316395893E+01  5.942600000E+02  7.788920116E-01 
       116 -4.517199587E-03 -1.649999963E-03  9.887236864E-04  2.241559751E-03  3.982828256E+01  5.942599867E+02  7.766479670E-01 
       117 -4.414670316E-03 -1.650000033E-03  9.887104562E-04  2.241559758E-03  3.981685727E+01  5.942600133E+02  7.766463758E-01 
       118 -3.651595001E-03 -1.650000048E-03  9.886098026E-04  2.241559780E-03  3.974223060E+01  5.942600177E+02  7.766364809E-01 
       119 -3.094823677E-03 -1.650000049E-03  9.885372614E-04  2.241560157E-03  3.969598826E+01  5.942600177E+02  7.766308782E-01 
       120 -2.793029229E-03 -1.649999951E-03  9.884973581E-04  2.241560405E-03  3.967461703E+01  5.942599823E+02  7.766283739E-01 
       121 -1.203183536E-02 -1.650000008E-03  9.888320552E-04  2.197050931E-03  4.301317920E+01  5.942599999E+02  7.792402803E-01 
       122 -5.373331867E-03 -1.650000002E-03  9.888373881E-04  2.241561706E-03  3.994309539E+01  5.942600000E+02  7.766655407E-01 
       123 -4.706021831E-03 -1.649999978E-03  9.887486688E-04  2.241560179E-03  3.985281039E+01  5.942599911E+02  7.766517788E-01 
       124 -1.189645587E-02 -1.650000052E-03  9.889921867E-04  2.217447827E-03  4.283603354E+01  5.942600176E+02  7.790455703E-01 
       125 -5.769750150E-03 -1.650000058E-03  9.888914969E-04  2.241563577E-03  4.000627559E+01  5.942600177E+02  7.766765217E-01 
       126 -7.038392819E-03 -1.649999978E-03  9.890637268E-04  2.241574642E-03  4.025182513E+01  5.942599911E+02  7.767272783E-01 
       127 -6.777981764E-03 -1.650000004E-03  9.890279205E-04  2.241572032E-03  4.019756676E+01  5.942600000E+02  7.767157093E-01 
       128 -6.208507374E-03 -1.649999986E-03  9.889500532E-04  2.241566196E-03  4.008200394E+01  5.942600000E+02  7.766903711E-01 
       129 -1.173398426E-02 -1.649999973E-03  9.891839625E-04  2.228520071E-03  4.264308852E+01  5.942599911E+02  7.787687578E-01 
       130 -7.317166953E-03 -1.650000004E-03  9.891033433E-04  2.241580116E-03  4.032223303E+01  5.942600000E+02  7.767462320E-01 
       131 -8.713682192E-03 -1.650000053E-03  9.893002256E-04  2.241627527E-03  4.074373477E+01  5.942600177E+02  7.768872294E-01 
       132 -8.332633425E-03 -1.649999946E-03  9.892454469E-04  2.241611441E-03  4.061748528E+01  5.942599823E+02  7.768415567E-01 
       133 -7.874710432E-03 -1.649999955E-03  9.891805000E-04  2.241592460E-03  4.047120254E+01  5.942599823E+02  7.767876492E-01 
       134 -1.153899587E-02 -1.649999945E-03  9.894136741E-04  2.234846157E-03  4.243771517E+01  5.942599822E+02  7.784699357E-01 
       135 -9.733691370E-03 -1.650000000E-03  9.894490791E-04  2.241635309E-03  4.119410342E+01  5.942600000E+02  7.771522773E-01 
       136 -9.556210586E-03 -1.650000046E-03  9.894235574E-04  2.241679004E-03  4.109623160E+01  5.942600177E+02  7.770729759E-01 
       137 -9.266405885E-03 -1.650000050E-03  9.893819229E-04  2.241660870E-03  4.097247288E+01  5.942600177E+02  7.770072678E-01 
       138 -1.041736222E-02 -1.649999955E-03  9.895527119E-04  2.241477227E-03  4.157890424E+01  5.942599822E+02  7.774591858E-01 
       139 -1.130497527E-02 -1.649999952E-03  9.896886455E-04  2.238407181E-03  4.221945263E+01  5.942599822E+02  7.781686675E-01 
       140 -1.104863784E-02 -1.650000007E-03  9.896471749E-04  2.239300555E-03  4.203133586E+01  5.942599999E+02  7.779608112E-01 
       141  1.110265300E-02 -1.649999997E-03  1.972140752E-03  2.223356824E-03  4.127916769E+01  5.942600000E+02  7.794580498E-01 
       142  1.129766783E-02 -1.649999997E-03  1.972047450E-03  2.221821115E-03  4.134635648E+01  5.942600000E+02  7.797420013E-01 
       143  1.038834619E-02 -1.649999990E-03  1.972439484E-03  2.228779418E-03  4.103706484E+01  5.942600000E+02  7.784572921E-01 
       144  9.996815845E-03 -1.649999998E-03  1.972603110E-03  2.229051729E-03  4.090759402E+01  5.942600000E+02  7.781292338E-01 
       145  9.485811853E-03 -1.649999993E-03  1.972800993E-03  2.229384329E-03  4.074311186E+01  5.942600000E+02  7.777143172E-01 
       146  8.598398070E-03 -1.649999998E-03  1.973137196E-03  2.229306870E-03  4.048366296E+01  5.942600000E+02  7.773257596E-01 
       147  8.805409659E-03 -1.650000022E-03  1.973060752E-03  2.229323831E-03  4.054238748E+01  5.942600088E+02  7.774142328E-01 
       148  1.153328860E-02 -1.649999970E-03  1.973080771E-03  2.214424731E-03  4.141737569E+01  5.942599911E+02  7.802396240E-01 
       149  8.091608969E-03 -1.650000003E-03  1.973322042E-03  2.229268078E-03  4.035712464E+01  5.942600000E+02  7.772006900E-01 
       150  7.572601876E-03 -1.650000025E-03  1.973515861E-03  2.229233961E-03  4.023589648E+01  5.942600088E+02  7.770902805E-01 
       151  7.730469083E-03 -1.650000002E-03  1.973458047E-03  2.229241055E-03  4.026900239E+01  5.942600000E+02  7.771137756E-01 
