nodenumber     x-coordinate     y-coordinate     z-coordinate turb-kinetic-energy         pressure      temperature velocity-magnitude 
         1 -1.238224696E-02 -1.650000007E-03  0.000000000E+00  4.939166050E-03  4.682621675E+01  5.942600197E+02  0.000000000E+00 
         2 -1.231646687E-02 -1.649999949E-03  0.000000000E+00  2.413335154E-03  4.675265450E+01  5.942599823E+02  8.022194351E-01 
         3 -1.223752875E-02 -1.650000008E-03  0.000000000E+00  2.413335226E-03  4.656800866E+01  5.942600000E+02  8.022194590E-01 
         4 -1.214279805E-02 -1.649999951E-03  0.000000000E+00  2.413335154E-03  4.632821567E+01  5.942599823E+02  8.022194351E-01 
         5 -1.202911553E-02 -1.649999951E-03  0.000000000E+00  2.413335154E-03  4.605105935E+01  5.942599823E+02  8.022194351E-01 
         6 -1.189268779E-02 -1.650000001E-03  0.000000000E+00  2.413335226E-03  4.574519236E+01  5.942600000E+02  8.022194590E-01 
         7 -1.172896070E-02 -1.650000028E-03  0.000000000E+00  2.413335262E-03  4.542314412E+01  5.942600089E+02  8.022194709E-01 
         8 -1.153246726E-02 -1.649999968E-03  0.000000000E+00  2.413335190E-03  4.508803204E+01  5.942599911E+02  8.022194470E-01 
         9 -1.129664480E-02 -1.649999999E-03  0.000000000E+00  2.413335226E-03  4.458429558E+01  5.942600000E+02  8.022194590E-01 
        10 -1.104180182E-02 -1.649999952E-03  0.000000000E+00  2.413335154E-03  4.437580443E+01  5.942599823E+02  8.022194351E-01 
        11 -1.040965475E-02 -1.650000037E-03  0.000000000E+00  2.413335298E-03  4.387064014E+01  5.942600177E+02  8.022194829E-01 
        12 -9.727797567E-03 -1.649999974E-03  0.000000000E+00  2.413335190E-03  4.337015814E+01  5.942599911E+02  8.022194470E-01 
        13 -9.549135039E-03 -1.650000016E-03  0.000000000E+00  2.413335262E-03  4.324072120E+01  5.942600089E+02  8.022194709E-01 
        14 -9.257402967E-03 -1.649999996E-03  0.000000000E+00  2.413335226E-03  4.308990753E+01  5.942600000E+02  8.022194590E-01 
        15 -8.707201624E-03 -1.650000004E-03  0.000000000E+00  2.413335226E-03  4.281273938E+01  5.942600000E+02  8.022194590E-01 
        16 -8.327874969E-03 -1.650000002E-03  0.000000000E+00  2.413335226E-03  4.266337297E+01  5.942600000E+02  8.022194590E-01 
        17 -7.868819436E-03 -1.650000009E-03  0.000000000E+00  2.413335226E-03  4.248800821E+01  5.942600000E+02  8.022194590E-01 
        18 -7.309914944E-03 -1.650000005E-03  0.000000000E+00  2.413335226E-03  4.231561587E+01  5.942600000E+02  8.022194590E-01 
        19 -7.033056079E-03 -1.649999952E-03  0.000000000E+00  2.413335154E-03  4.223532597E+01  5.942599823E+02  8.022194351E-01 
        20 -6.774404682E-03 -1.650000049E-03  0.000000000E+00  2.413335298E-03  4.217511894E+01  5.942600177E+02  8.022194829E-01 
        21 -6.203718579E-03 -1.649999993E-03  0.000000000E+00  2.413335226E-03  4.204697999E+01  5.942600000E+02  8.022194590E-01 
        22 -5.764059055E-03 -1.650000057E-03  0.000000000E+00  2.413335298E-03  4.196150001E+01  5.942600177E+02  8.022194829E-01 
        23 -5.369046210E-03 -1.650000008E-03  0.000000000E+00  2.413335226E-03  4.189138231E+01  5.942600000E+02  8.022194590E-01 
        24 -4.703991919E-03 -1.649999998E-03  0.000000000E+00  2.413335226E-03  4.179158109E+01  5.942600000E+02  8.022194590E-01 
        25 -4.513416810E-03 -1.649999963E-03  0.000000000E+00  2.413335172E-03  4.176403730E+01  5.942599867E+02  8.022194411E-01 
        26 -4.409949101E-03 -1.650000002E-03  0.000000000E+00  2.413335226E-03  4.175134634E+01  5.942600000E+02  8.022194590E-01 
        27 -3.648226494E-03 -1.649999989E-03  0.000000000E+00  2.413335226E-03  4.166923156E+01  5.942600000E+02  8.022194590E-01 
        28 -3.090814824E-03 -1.649999990E-03  0.000000000E+00  2.413335226E-03  4.161764020E+01  5.942600000E+02  8.022194590E-01 
        29 -2.790049428E-03 -1.649999975E-03  0.000000000E+00  2.413335190E-03  4.159414774E+01  5.942599911E+02  8.022194470E-01 
        30 -2.326109559E-03 -1.650000046E-03  0.000000000E+00  2.413335298E-03  4.156445842E+01  5.942600177E+02  8.022194829E-01 
        31 -1.966101120E-03 -1.650000005E-03  0.000000000E+00  2.413335226E-03  4.154393805E+01  5.942600000E+02  8.022194590E-01 
        32 -1.649288649E-03 -1.650000004E-03  0.000000000E+00  2.413335226E-03  4.153083455E+01  5.942600000E+02  8.022194590E-01 
        33 -1.153324779E-03 -1.650000049E-03  0.000000000E+00  2.413335298E-03  4.151528621E+01  5.942600177E+02  8.022194829E-01 
        34 -7.314993435E-04 -1.649999992E-03  0.000000000E+00  2.413335226E-03  4.150667456E+01  5.942600000E+02  8.022194590E-01 
        35 -3.521276869E-04 -1.650000043E-03  0.000000000E+00  2.413335298E-03  4.150194647E+01  5.942600177E+02  8.022194829E-01 
        36  2.062356178E-04 -1.650000004E-03  0.000000000E+00  2.413335226E-03  4.150204179E+01  5.942600000E+02  8.022194590E-01 
        37  4.531226353E-04 -1.649999970E-03  0.000000000E+00  2.413335190E-03  4.150353301E+01  5.942599911E+02  8.022194470E-01 
        38  5.816147412E-04 -1.650000031E-03  0.000000000E+00  2.413335262E-03  4.150620617E+01  5.942600089E+02  8.022194709E-01 
        39  1.287381078E-03 -1.649999940E-03  0.000000000E+00  2.413335154E-03  4.152741296E+01  5.942599823E+02  8.022194351E-01 
        40  1.817906072E-03 -1.650000045E-03  0.000000000E+00  2.413335298E-03  4.154951990E+01  5.942600177E+02  8.022194829E-01 
        41  2.171618469E-03 -1.649999958E-03  0.000000000E+00  2.413335154E-03  4.156869245E+01  5.942599823E+02  8.022194351E-01 
        42  2.917015337E-03 -1.650000026E-03  0.000000000E+00  2.413335262E-03  4.161978849E+01  5.942600089E+02  8.022194709E-01 
        43  3.060138752E-03 -1.649999982E-03  0.000000000E+00  2.413335199E-03  4.163026836E+01  5.942599934E+02  8.022194500E-01 
        44  3.122627803E-03 -1.650000012E-03  0.000000000E+00  2.413335244E-03  4.163576643E+01  5.942600044E+02  8.022194650E-01 
        45  3.948750735E-03 -1.649999946E-03  0.000000000E+00  2.413335154E-03  4.171948266E+01  5.942599823E+02  8.022194351E-01 
        46  4.233552192E-03 -1.650000005E-03  0.000000000E+00  2.413335226E-03  4.175055974E+01  5.942600000E+02  8.022194590E-01 
        47  4.833507872E-03 -1.649999945E-03  0.000000000E+00  2.413335154E-03  4.183057494E+01  5.942599823E+02  8.022194351E-01 
        48  5.160210487E-03 -1.649999946E-03  0.000000000E+00  2.413335154E-03  4.187986784E+01  5.942599823E+02  8.022194351E-01 
        49  5.783248106E-03 -1.650000052E-03  0.000000000E+00  2.413335298E-03  4.199128703E+01  5.942600177E+02  8.022194829E-01 
        50  6.035984549E-03 -1.649999976E-03  0.000000000E+00  2.413335190E-03  4.203908305E+01  5.942599911E+02  8.022194470E-01 
        51  6.237400109E-03 -1.650000022E-03  0.000000000E+00  2.413335262E-03  4.208270171E+01  5.942600089E+02  8.022194709E-01 
        52  6.881112835E-03 -1.650000056E-03  0.000000000E+00  2.413335298E-03  4.222862703E+01  5.942600177E+02  8.022194829E-01 
        53  7.573470319E-03 -1.649999997E-03  0.000000000E+00  2.413335226E-03  4.242222967E+01  5.942600000E+02  8.022194590E-01 
        54  7.730792309E-03 -1.650000003E-03  0.000000000E+00  2.413335226E-03  4.246774610E+01  5.942600000E+02  8.022194590E-01 
        55  8.090815089E-03 -1.650000001E-03  0.000000000E+00  2.413335226E-03  4.260038511E+01  5.942600000E+02  8.022194590E-01 
        56  8.598449542E-03 -1.650000003E-03  0.000000000E+00  2.413335226E-03  4.279195048E+01  5.942600000E+02  8.022194590E-01 
        57  8.805739513E-03 -1.650000003E-03  0.000000000E+00  2.413335226E-03  4.289439544E+01  5.942600000E+02  8.022194590E-01 
        58  9.485623847E-03 -1.649999997E-03  0.000000000E+00  2.413335226E-03  4.324332470E+01  5.942600000E+02  8.022194590E-01 
        59  9.996717122E-03 -1.650000053E-03  0.000000000E+00  2.413335298E-03  4.360796467E+01  5.942600177E+02  8.022194829E-01 
        60  1.038796781E-02 -1.650000000E-03  0.000000000E+00  2.413335226E-03  4.389949847E+01  5.942600000E+02  8.022194590E-01 
        61  1.110225324E-02 -1.650000050E-03  0.000000000E+00  2.413335298E-03  4.447739000E+01  5.942600177E+02  8.022194829E-01 
        62  1.129715473E-02 -1.650000051E-03  0.000000000E+00  2.413335298E-03  4.463839810E+01  5.942600177E+02  8.022194829E-01 
        63  1.153289457E-02 -1.649999949E-03  0.000000000E+00  2.413335154E-03  4.515385475E+01  5.942599823E+02  8.022194351E-01 
        64  1.172932302E-02 -1.649999996E-03  0.000000000E+00  2.413335226E-03  4.549969114E+01  5.942600000E+02  8.022194590E-01 
        65  1.189299876E-02 -1.650000052E-03  0.000000000E+00  2.413335298E-03  4.583370977E+01  5.942600177E+02  8.022194829E-01 
        66  1.202938442E-02 -1.649999949E-03  0.000000000E+00  2.413335154E-03  4.615278093E+01  5.942599823E+02  8.022194351E-01 
        67  1.214303390E-02 -1.650000044E-03  0.000000000E+00  2.413335298E-03  4.644296624E+01  5.942600177E+02  8.022194829E-01 
        68  1.223773642E-02 -1.650000012E-03  0.000000000E+00  2.413335226E-03  4.669477300E+01  5.942600000E+02  8.022194590E-01 
        69  1.231665286E-02 -1.650000046E-03  0.000000000E+00  2.413335298E-03  4.688867602E+01  5.942600177E+02  8.022194829E-01 
        70  1.238241385E-02 -1.649999998E-03  0.000000000E+00  4.908461792E-03  4.696545124E+01  5.942600197E+02  0.000000000E+00 
        71  1.110245300E-02 -1.649999996E-03  9.860657205E-04  2.390128244E-03  4.412844442E+01  5.942599999E+02  8.037857496E-01 
        72  1.129741118E-02 -1.649999994E-03  9.860237298E-04  2.389484689E-03  4.427980149E+01  5.942599999E+02  8.039594727E-01 
        73  1.038815708E-02 -1.649999987E-03  9.861987235E-04  2.392398061E-03  4.359041094E+01  5.942600000E+02  8.031758332E-01 
        74  8.805574705E-03 -1.650000021E-03  9.864727040E-04  2.392463780E-03  4.276741717E+01  5.942600088E+02  8.026086302E-01 
        75  9.485717905E-03 -1.650000014E-03  9.863583903E-04  2.392519788E-03  4.306788162E+01  5.942600000E+02  8.027591287E-01 
        76  9.996766092E-03 -1.649999943E-03  9.862710097E-04  2.392453026E-03  4.336023971E+01  5.942599823E+02  8.029916159E-01 
        77  7.730630904E-03 -1.650000039E-03  9.866502961E-04  2.392406997E-03  4.238720741E+01  5.942600133E+02  8.024646816E-01 
        78  8.091212126E-03 -1.649999999E-03  9.865892570E-04  2.392423609E-03  4.250690251E+01  5.942600000E+02  8.025053947E-01 
        79  8.598423723E-03 -1.649999983E-03  9.865066297E-04  2.392447570E-03  4.267924046E+01  5.942599911E+02  8.025641107E-01 
        80  1.153309208E-02 -1.650000032E-03  9.865404178E-04  2.385953429E-03  4.450791762E+01  5.942600088E+02  8.042938649E-01 
        81  7.573036225E-03 -1.650000030E-03  9.866765862E-04  2.392402825E-03  4.234482758E+01  5.942600088E+02  8.024541077E-01 
        82  5.783215100E-03 -1.650000004E-03  9.869826635E-04  2.392367993E-03  4.194134243E+01  5.942600000E+02  8.023664295E-01 
        83  6.035506259E-03 -1.649999949E-03  9.869375075E-04  2.392370997E-03  4.198478121E+01  5.942599823E+02  8.023732200E-01 
        84  6.236595952E-03 -1.650000002E-03  9.869024133E-04  2.392374427E-03  4.202648828E+01  5.942600000E+02  8.023815014E-01 
        85  6.880806203E-03 -1.649999944E-03  9.867931445E-04  2.392384975E-03  4.216457375E+01  5.942599823E+02  8.024082649E-01 
        86  1.172947215E-02 -1.650000029E-03  9.869723181E-04  2.379645287E-03  4.472351189E+01  5.942600088E+02  8.046277621E-01 
        87  4.832561986E-03 -1.649999941E-03  9.871570102E-04  2.392357862E-03  4.179040621E+01  5.942599823E+02  8.023439826E-01 
        88  5.159606270E-03 -1.650000004E-03  9.870976822E-04  2.392360878E-03  4.183828842E+01  5.942600000E+02  8.023505693E-01 
        89  3.947734035E-03 -1.649999955E-03  9.873277149E-04  2.392350512E-03  4.168086780E+01  5.942599823E+02  8.023298657E-01 
        90  4.232942892E-03 -1.649999946E-03  9.872707921E-04  2.392352707E-03  4.171179371E+01  5.942599823E+02  8.023334435E-01 
        91  1.189310817E-02 -1.649999954E-03  9.873330752E-04  2.368640108E-03  4.492705917E+01  5.942599822E+02  8.049393526E-01 
        92  2.914795121E-03 -1.649999999E-03  9.875323253E-04  2.392343350E-03  4.158598636E+01  5.942600000E+02  8.023193322E-01 
        93  3.058937451E-03 -1.650000039E-03  9.875036176E-04  2.392344302E-03  4.159618171E+01  5.942600133E+02  8.023203410E-01 
        94  3.121859929E-03 -1.649999985E-03  9.874906111E-04  2.392344658E-03  4.160139366E+01  5.942599956E+02  8.023208583E-01 
        95  1.285714191E-03 -1.649999950E-03  9.878538017E-04  2.392333777E-03  4.149648780E+01  5.942599823E+02  8.023104200E-01 
        96  1.816924899E-03 -1.650000049E-03  9.877480907E-04  2.392336824E-03  4.151808439E+01  5.942600177E+02  8.023127301E-01 
        97  2.170191834E-03 -1.650000044E-03  9.876810309E-04  2.392338798E-03  4.153674839E+01  5.942600177E+02  8.023145602E-01 
        98  1.202946298E-02 -1.649999953E-03  9.876343321E-04  2.348533666E-03  4.511426411E+01  5.942599822E+02  8.051671762E-01 
        99  1.214308635E-02 -1.649999988E-03  9.878858045E-04  2.316579494E-03  4.527372812E+01  5.942600000E+02  8.048314624E-01 
       100 -3.542577826E-04 -1.650000007E-03  9.881497301E-04  2.392326345E-03  4.147148486E+01  5.942600000E+02  8.023080560E-01 
       101  2.031021205E-04 -1.649999952E-03  9.880507533E-04  2.392328607E-03  4.147197753E+01  5.942599823E+02  8.023081047E-01 
       102  4.512136878E-04 -1.649999952E-03  9.880065915E-04  2.392329686E-03  4.147347695E+01  5.942599823E+02  8.023080578E-01 
       103  5.803136392E-04 -1.649999997E-03  9.879823968E-04  2.392330400E-03  4.147617084E+01  5.942600000E+02  8.023086147E-01 
       104  1.223776813E-02 -1.650000009E-03  9.880956075E-04  2.664821965E-03  4.540072936E+01  5.942600010E+02  7.976221318E-01 
       105 -1.968786396E-03 -1.649999951E-03  9.883890366E-04  2.392321341E-03  4.151292959E+01  5.942599823E+02  8.023138737E-01 
       106 -1.652977683E-03 -1.649999996E-03  9.883474365E-04  2.392322162E-03  4.150007793E+01  5.942600000E+02  8.023122853E-01 
       107 -1.155706233E-03 -1.649999999E-03  9.882811823E-04  2.392323476E-03  4.148442163E+01  5.942600000E+02  8.023099688E-01 
       108 -7.328599352E-04 -1.649999953E-03  9.882105507E-04  2.392324911E-03  4.147613368E+01  5.942599823E+02  8.023087456E-01 
       109  1.231666688E-02 -1.649999993E-03  9.882706246E-04  8.013106711E-03  4.548236190E+01  5.942600072E+02  7.455789047E-01 
       110 -1.238224737E-02 -1.650000051E-03  9.884166253E-04  9.311918056E-03  4.547436698E+01  5.942600661E+02  0.000000000E+00 
       111 -1.231697450E-02 -1.649999999E-03  9.884940960E-04  8.101845302E-03  4.545954304E+01  5.942600069E+02  7.475459987E-01 
       112 -2.327584992E-03 -1.649999952E-03  9.884358288E-04  2.392320634E-03  4.153265178E+01  5.942599823E+02  8.023161670E-01 
       113  1.238241434E-02 -1.650000051E-03  9.884166253E-04  9.229762299E-03  4.549503766E+01  5.942600662E+02  0.000000000E+00 
       114 -1.223864467E-02 -1.650000051E-03  9.885870638E-04  2.677754526E-03  4.537512896E+01  5.942600187E+02  7.976613630E-01 
       115 -1.214464338E-02 -1.649999994E-03  9.886984689E-04  2.311807419E-03  4.524686165E+01  5.942600000E+02  8.046365092E-01 
       116 -4.517199587E-03 -1.649999963E-03  9.887236864E-04  2.392318990E-03  4.172296403E+01  5.942599867E+02  8.023396094E-01 
       117 -4.414670316E-03 -1.650000033E-03  9.887104562E-04  2.392319005E-03  4.171093782E+01  5.942600133E+02  8.023379760E-01 
       118 -3.651595001E-03 -1.650000048E-03  9.886098026E-04  2.392319075E-03  4.163245293E+01  5.942600177E+02  8.023278078E-01 
       119 -3.094823677E-03 -1.650000049E-03  9.885372614E-04  2.392319506E-03  4.158387929E+01  5.942600177E+02  8.023220450E-01 
       120 -2.793029229E-03 -1.649999951E-03  9.884973581E-04  2.392319783E-03  4.156146097E+01  5.942599823E+02  8.023194658E-01 
       121 -1.203183536E-02 -1.650000008E-03  9.888320552E-04  2.345143390E-03  4.508752197E+01  5.942599999E+02  8.049874287E-01 
       122 -5.373331867E-03 -1.650000002E-03  9.888373881E-04  2.392320991E-03  4.184394128E+01  5.942600000E+02  8.023576382E-01 
       123 -4.706021831E-03 -1.649999978E-03  9.887486688E-04  2.392319427E-03  4.174880600E+01  5.942599911E+02  8.023435199E-01 
       124 -1.189645587E-02 -1.650000052E-03  9.889921867E-04  2.366721057E-03  4.490039692E+01  5.942600176E+02  8.047885130E-01 
       125 -5.769750150E-03 -1.650000058E-03  9.888914969E-04  2.392322932E-03  4.191057580E+01  5.942600177E+02  8.023688919E-01 
       126 -7.038392819E-03 -1.649999978E-03  9.890637268E-04  2.392334461E-03  4.216975998E+01  5.942599911E+02  8.024208439E-01 
       127 -6.777981764E-03 -1.650000004E-03  9.890279205E-04  2.392331739E-03  4.211247379E+01  5.942600000E+02  8.024090053E-01 
       128 -6.208507374E-03 -1.649999986E-03  9.889500532E-04  2.392325653E-03  4.199046860E+01  5.942600000E+02  8.023830782E-01 
       129 -1.173398426E-02 -1.649999973E-03  9.891839625E-04  2.378456122E-03  4.469665856E+01  5.942599911E+02  8.045059329E-01 
       130 -7.317166953E-03 -1.650000004E-03  9.891033433E-04  2.392340178E-03  4.224414219E+01  5.942600000E+02  8.024402188E-01 
       131 -8.713682192E-03 -1.650000053E-03  9.893002256E-04  2.392389648E-03  4.268957271E+01  5.942600177E+02  8.025842794E-01 
       132 -8.332633425E-03 -1.649999946E-03  9.892454469E-04  2.392372865E-03  4.255613451E+01  5.942599823E+02  8.025376229E-01 
       133 -7.874710432E-03 -1.649999955E-03  9.891805000E-04  2.392353070E-03  4.240153269E+01  5.942599823E+02  8.024825532E-01 
       134 -1.153899587E-02 -1.649999945E-03  9.894136741E-04  2.385170707E-03  4.447977339E+01  5.942599822E+02  8.042007983E-01 
       135 -9.733691370E-03 -1.650000000E-03  9.894490791E-04  2.392395358E-03  4.316563461E+01  5.942600000E+02  8.028549814E-01 
       136 -9.556210586E-03 -1.650000046E-03  9.894235574E-04  2.392442685E-03  4.306218840E+01  5.942600177E+02  8.027739850E-01 
       137 -9.266405885E-03 -1.650000050E-03  9.893819229E-04  2.392424006E-03  4.293136607E+01  5.942600177E+02  8.027068752E-01 
       138 -1.041736222E-02 -1.649999955E-03  9.895527119E-04  2.392223912E-03  4.357236505E+01  5.942599822E+02  8.031684429E-01 
       139 -1.130497527E-02 -1.649999952E-03  9.896886455E-04  2.388954138E-03  4.424922557E+01  5.942599822E+02  8.038931058E-01 
       140 -1.104863784E-02 -1.650000007E-03  9.896471749E-04  2.389905641E-03  4.405044365E+01  5.942599999E+02  8.036808044E-01 
       141  1.110265300E-02 -1.649999997E-03  1.972140752E-03  2.372895410E-03  4.326472238E+01  5.942600000E+02  8.052112851E-01 
       142  1.129766783E-02 -1.649999997E-03  1.972047450E-03  2.371260790E-03  4.333585919E+01  5.942600000E+02  8.055014296E-01 
       143  1.038834619E-02 -1.649999990E-03  1.972439484E-03  2.378667475E-03  4.300838994E+01  5.942600000E+02  8.041887121E-01 
       144  9.996815845E-03 -1.649999998E-03  1.972603110E-03  2.378960029E-03  4.287133082E+01  5.942600000E+02  8.038534977E-01 
       145  9.485811853E-03 -1.649999993E-03  1.972800993E-03  2.379317412E-03  4.269720157E+01  5.942600000E+02  8.034295289E-01 
       146  8.598398070E-03 -1.649999998E-03  1.973137196E-03  2.379237934E-03  4.242253848E+01  5.942600000E+02  8.030324485E-01 
       147  8.805409659E-03 -1.650000022E-03  1.973060752E-03  2.379255318E-03  4.248470989E+01  5.942600088E+02  8.031228619E-01 
       148  1.153328860E-02 -1.649999970E-03  1.973080771E-03  2.363400757E-03  4.341106862E+01  5.942599911E+02  8.060098270E-01 
       149  8.091608969E-03 -1.650000003E-03  1.973322042E-03  2.379197368E-03  4.228855508E+01  5.942600000E+02  8.029046105E-01 
       150  7.572601876E-03 -1.650000025E-03  1.973515861E-03  2.379161659E-03  4.216018145E+01  5.942600088E+02  8.027917494E-01 
       151  7.730469083E-03 -1.650000002E-03  1.973458047E-03  2.379169104E-03  4.219524487E+01  5.942600000E+02  8.028157719E-01 
