nodenumber     x-coordinate     y-coordinate     z-coordinate turb-kinetic-energy         pressure      temperature velocity-magnitude 
         1 -1.238224696E-02 -1.650000007E-03  0.000000000E+00  3.736538733E-03  3.753195144E+01  5.942600144E+02  0.000000000E+00 
         2 -1.231646687E-02 -1.649999949E-03  0.000000000E+00  1.760972507E-03  3.747536205E+01  5.942599823E+02  6.852683083E-01 
         3 -1.223752875E-02 -1.650000008E-03  0.000000000E+00  1.760972559E-03  3.733377947E+01  5.942600000E+02  6.852683288E-01 
         4 -1.214279805E-02 -1.649999951E-03  0.000000000E+00  1.760972507E-03  3.715021997E+01  5.942599823E+02  6.852683083E-01 
         5 -1.202911553E-02 -1.649999951E-03  0.000000000E+00  1.760972507E-03  3.693754556E+01  5.942599823E+02  6.852683083E-01 
         6 -1.189268779E-02 -1.650000001E-03  0.000000000E+00  1.760972559E-03  3.670231862E+01  5.942600000E+02  6.852683288E-01 
         7 -1.172896070E-02 -1.650000028E-03  0.000000000E+00  1.760972585E-03  3.645458193E+01  5.942600089E+02  6.852683390E-01 
         8 -1.153246726E-02 -1.649999968E-03  0.000000000E+00  1.760972533E-03  3.619699729E+01  5.942599911E+02  6.852683186E-01 
         9 -1.129664480E-02 -1.649999999E-03  0.000000000E+00  1.760972559E-03  3.581033744E+01  5.942600000E+02  6.852683288E-01 
        10 -1.104180182E-02 -1.649999952E-03  0.000000000E+00  1.760972507E-03  3.565044889E+01  5.942599823E+02  6.852683083E-01 
        11 -1.040965475E-02 -1.650000037E-03  0.000000000E+00  1.760972611E-03  3.526301657E+01  5.942600177E+02  6.852683492E-01 
        12 -9.727797567E-03 -1.649999974E-03  0.000000000E+00  1.760972533E-03  3.487924899E+01  5.942599911E+02  6.852683186E-01 
        13 -9.549135039E-03 -1.650000016E-03  0.000000000E+00  1.760972585E-03  3.477998723E+01  5.942600089E+02  6.852683390E-01 
        14 -9.257402967E-03 -1.649999996E-03  0.000000000E+00  1.760972559E-03  3.466413047E+01  5.942600000E+02  6.852683288E-01 
        15 -8.707201624E-03 -1.650000004E-03  0.000000000E+00  1.760972559E-03  3.445118331E+01  5.942600000E+02  6.852683288E-01 
        16 -8.327874969E-03 -1.650000002E-03  0.000000000E+00  1.760972559E-03  3.433597100E+01  5.942600000E+02  6.852683288E-01 
        17 -7.868819436E-03 -1.650000009E-03  0.000000000E+00  1.760972559E-03  3.420069797E+01  5.942600000E+02  6.852683288E-01 
        18 -7.309914944E-03 -1.650000005E-03  0.000000000E+00  1.760972559E-03  3.406706610E+01  5.942600000E+02  6.852683288E-01 
        19 -7.033056079E-03 -1.649999952E-03  0.000000000E+00  1.760972507E-03  3.400477378E+01  5.942599823E+02  6.852683083E-01 
        20 -6.774404682E-03 -1.650000049E-03  0.000000000E+00  1.760972611E-03  3.395779355E+01  5.942600177E+02  6.852683492E-01 
        21 -6.203718579E-03 -1.649999993E-03  0.000000000E+00  1.760972559E-03  3.385782345E+01  5.942600000E+02  6.852683288E-01 
        22 -5.764059055E-03 -1.650000057E-03  0.000000000E+00  1.760972611E-03  3.379078870E+01  5.942600177E+02  6.852683492E-01 
        23 -5.369046210E-03 -1.650000008E-03  0.000000000E+00  1.760972559E-03  3.373568185E+01  5.942600000E+02  6.852683288E-01 
        24 -4.703991919E-03 -1.649999998E-03  0.000000000E+00  1.760972559E-03  3.365683808E+01  5.942600000E+02  6.852683288E-01 
        25 -4.513416810E-03 -1.649999963E-03  0.000000000E+00  1.760972520E-03  3.363507087E+01  5.942599867E+02  6.852683134E-01 
        26 -4.409949101E-03 -1.650000002E-03  0.000000000E+00  1.760972559E-03  3.362499839E+01  5.942600000E+02  6.852683288E-01 
        27 -3.648226494E-03 -1.649999989E-03  0.000000000E+00  1.760972559E-03  3.355952817E+01  5.942600000E+02  6.852683288E-01 
        28 -3.090814824E-03 -1.649999990E-03  0.000000000E+00  1.760972559E-03  3.351819195E+01  5.942600000E+02  6.852683288E-01 
        29 -2.790049428E-03 -1.649999975E-03  0.000000000E+00  1.760972533E-03  3.349925129E+01  5.942599911E+02  6.852683186E-01 
        30 -2.326109559E-03 -1.650000046E-03  0.000000000E+00  1.760972611E-03  3.347516170E+01  5.942600177E+02  6.852683492E-01 
        31 -1.966101120E-03 -1.650000005E-03  0.000000000E+00  1.760972559E-03  3.345843712E+01  5.942600000E+02  6.852683288E-01 
        32 -1.649288649E-03 -1.650000004E-03  0.000000000E+00  1.760972559E-03  3.344760486E+01  5.942600000E+02  6.852683288E-01 
        33 -1.153324779E-03 -1.650000049E-03  0.000000000E+00  1.760972611E-03  3.343451875E+01  5.942600177E+02  6.852683492E-01 
        34 -7.314993435E-04 -1.649999992E-03  0.000000000E+00  1.760972559E-03  3.342701333E+01  5.942600000E+02  6.852683288E-01 
        35 -3.521276869E-04 -1.650000043E-03  0.000000000E+00  1.760972611E-03  3.342263247E+01  5.942600177E+02  6.852683492E-01 
        36  2.062356178E-04 -1.650000004E-03  0.000000000E+00  1.760972559E-03  3.342175461E+01  5.942600000E+02  6.852683288E-01 
        37  4.531226353E-04 -1.649999970E-03  0.000000000E+00  1.760972533E-03  3.342250367E+01  5.942599911E+02  6.852683186E-01 
        38  5.816147412E-04 -1.650000031E-03  0.000000000E+00  1.760972585E-03  3.342437666E+01  5.942600089E+02  6.852683390E-01 
        39  1.287381078E-03 -1.649999940E-03  0.000000000E+00  1.760972507E-03  3.343976955E+01  5.942599823E+02  6.852683083E-01 
        40  1.817906072E-03 -1.650000045E-03  0.000000000E+00  1.760972611E-03  3.345616472E+01  5.942600177E+02  6.852683492E-01 
        41  2.171618469E-03 -1.649999958E-03  0.000000000E+00  1.760972507E-03  3.347056969E+01  5.942599823E+02  6.852683083E-01 
        42  2.917015337E-03 -1.650000026E-03  0.000000000E+00  1.760972585E-03  3.350929629E+01  5.942600089E+02  6.852683390E-01 
        43  3.060138752E-03 -1.649999982E-03  0.000000000E+00  1.760972539E-03  3.351725661E+01  5.942599934E+02  6.852683211E-01 
        44  3.122627803E-03 -1.650000012E-03  0.000000000E+00  1.760972572E-03  3.352145335E+01  5.942600044E+02  6.852683339E-01 
        45  3.948750735E-03 -1.649999946E-03  0.000000000E+00  1.760972507E-03  3.358553818E+01  5.942599823E+02  6.852683083E-01 
        46  4.233552192E-03 -1.650000005E-03  0.000000000E+00  1.760972559E-03  3.360937605E+01  5.942600000E+02  6.852683288E-01 
        47  4.833507872E-03 -1.649999945E-03  0.000000000E+00  1.760972507E-03  3.367087948E+01  5.942599823E+02  6.852683083E-01 
        48  5.160210487E-03 -1.649999946E-03  0.000000000E+00  1.760972507E-03  3.370882548E+01  5.942599823E+02  6.852683083E-01 
        49  5.783248106E-03 -1.650000052E-03  0.000000000E+00  1.760972611E-03  3.379459183E+01  5.942600177E+02  6.852683492E-01 
        50  6.035984549E-03 -1.649999976E-03  0.000000000E+00  1.760972533E-03  3.383139424E+01  5.942599911E+02  6.852683186E-01 
        51  6.237400109E-03 -1.650000022E-03  0.000000000E+00  1.760972585E-03  3.386497480E+01  5.942600089E+02  6.852683390E-01 
        52  6.881112835E-03 -1.650000056E-03  0.000000000E+00  1.760972611E-03  3.397737922E+01  5.942600177E+02  6.852683492E-01 
        53  7.573470319E-03 -1.649999997E-03  0.000000000E+00  1.760972559E-03  3.412637547E+01  5.942600000E+02  6.852683288E-01 
        54  7.730792309E-03 -1.650000003E-03  0.000000000E+00  1.760972559E-03  3.416141875E+01  5.942600000E+02  6.852683288E-01 
        55  8.090815089E-03 -1.650000001E-03  0.000000000E+00  1.760972559E-03  3.426340555E+01  5.942600000E+02  6.852683288E-01 
        56  8.598449542E-03 -1.650000003E-03  0.000000000E+00  1.760972559E-03  3.441071735E+01  5.942600000E+02  6.852683288E-01 
        57  8.805739513E-03 -1.650000003E-03  0.000000000E+00  1.760972559E-03  3.448939417E+01  5.942600000E+02  6.852683288E-01 
        58  9.485623847E-03 -1.649999997E-03  0.000000000E+00  1.760972559E-03  3.475742219E+01  5.942600000E+02  6.852683288E-01 
        59  9.996717122E-03 -1.650000053E-03  0.000000000E+00  1.760972611E-03  3.503726334E+01  5.942600177E+02  6.852683492E-01 
        60  1.038796781E-02 -1.650000000E-03  0.000000000E+00  1.760972559E-03  3.526101834E+01  5.942600000E+02  6.852683288E-01 
        61  1.110225324E-02 -1.650000050E-03  0.000000000E+00  1.760972611E-03  3.570444363E+01  5.942600177E+02  6.852683492E-01 
        62  1.129715473E-02 -1.650000051E-03  0.000000000E+00  1.760972611E-03  3.582799717E+01  5.942600177E+02  6.852683492E-01 
        63  1.153289457E-02 -1.649999949E-03  0.000000000E+00  1.760972507E-03  3.622363669E+01  5.942599823E+02  6.852683083E-01 
        64  1.172932302E-02 -1.649999996E-03  0.000000000E+00  1.760972559E-03  3.648927933E+01  5.942600000E+02  6.852683288E-01 
        65  1.189299876E-02 -1.650000052E-03  0.000000000E+00  1.760972611E-03  3.674597492E+01  5.942600177E+02  6.852683492E-01 
        66  1.202938442E-02 -1.649999949E-03  0.000000000E+00  1.760972507E-03  3.699103529E+01  5.942599823E+02  6.852683083E-01 
        67  1.214303390E-02 -1.650000044E-03  0.000000000E+00  1.760972611E-03  3.721329408E+01  5.942600177E+02  6.852683492E-01 
        68  1.223773642E-02 -1.650000012E-03  0.000000000E+00  1.760972559E-03  3.740557409E+01  5.942600000E+02  6.852683288E-01 
        69  1.231665286E-02 -1.650000046E-03  0.000000000E+00  1.760972611E-03  3.755388897E+01  5.942600177E+02  6.852683492E-01 
        70  1.238241385E-02 -1.649999998E-03  0.000000000E+00  3.712113112E-03  3.761283927E+01  5.942600144E+02  0.000000000E+00 
        71  1.110245300E-02 -1.649999996E-03  9.860657205E-04  1.744061715E-03  3.543652474E+01  5.942599999E+02  6.866767696E-01 
        72  1.129741118E-02 -1.649999994E-03  9.860237298E-04  1.743588648E-03  3.555262233E+01  5.942599999E+02  6.868331748E-01 
        73  1.038815708E-02 -1.649999987E-03  9.861987235E-04  1.745729521E-03  3.502385824E+01  5.942600000E+02  6.861276373E-01 
        74  8.805574705E-03 -1.650000021E-03  9.864727040E-04  1.745757756E-03  3.439195988E+01  5.942600088E+02  6.856179455E-01 
        75  9.485717905E-03 -1.650000014E-03  9.863583903E-04  1.745804004E-03  3.462286351E+01  5.942600000E+02  6.857529620E-01 
        76  9.996766092E-03 -1.649999943E-03  9.862710097E-04  1.745763230E-03  3.484721128E+01  5.942599823E+02  6.859620035E-01 
        77  7.730630904E-03 -1.650000039E-03  9.866502961E-04  1.745711872E-03  3.409948102E+01  5.942600133E+02  6.854890755E-01 
        78  8.091212126E-03 -1.649999999E-03  9.865892570E-04  1.745725171E-03  3.419158489E+01  5.942600000E+02  6.855254894E-01 
        79  8.598423723E-03 -1.649999983E-03  9.865066297E-04  1.745744364E-03  3.432421345E+01  5.942599911E+02  6.855780053E-01 
        80  1.153309208E-02 -1.650000032E-03  9.865404178E-04  1.740956838E-03  3.572765099E+01  5.942600088E+02  6.871345332E-01 
        81  7.573036225E-03 -1.650000030E-03  9.866765862E-04  1.745708560E-03  3.406682336E+01  5.942600088E+02  6.854796463E-01 
        82  5.783215100E-03 -1.650000004E-03  9.869826635E-04  1.745681010E-03  3.375591718E+01  5.942600000E+02  6.854015420E-01 
        83  6.035506259E-03 -1.649999949E-03  9.869375075E-04  1.745683369E-03  3.378938825E+01  5.942599823E+02  6.854075749E-01 
        84  6.236595952E-03 -1.650000002E-03  9.869024133E-04  1.745686071E-03  3.382152300E+01  5.942600000E+02  6.854149439E-01 
        85  6.880806203E-03 -1.649999944E-03  9.867931445E-04  1.745694400E-03  3.392797777E+01  5.942599823E+02  6.854387576E-01 
        86  1.172947215E-02 -1.650000029E-03  9.869723181E-04  1.736231337E-03  3.589324424E+01  5.942600088E+02  6.874356551E-01 
        87  4.832561986E-03 -1.649999941E-03  9.871570102E-04  1.745673113E-03  3.363965065E+01  5.942599823E+02  6.853816012E-01 
        88  5.159606270E-03 -1.650000004E-03  9.870976822E-04  1.745675450E-03  3.367653482E+01  5.942600000E+02  6.853874537E-01 
        89  3.947734035E-03 -1.649999955E-03  9.873277149E-04  1.745667443E-03  3.355545840E+01  5.942599823E+02  6.853690637E-01 
        90  4.232942892E-03 -1.649999946E-03  9.872707921E-04  1.745669127E-03  3.357919128E+01  5.942599823E+02  6.853722390E-01 
        91  1.189310817E-02 -1.649999954E-03  9.873330752E-04  1.727927408E-03  3.604960651E+01  5.942599822E+02  6.877168056E-01 
        92  2.914795121E-03 -1.649999999E-03  9.875323253E-04  1.745661981E-03  3.348288057E+01  5.942600000E+02  6.853597061E-01 
        93  3.058937451E-03 -1.650000039E-03  9.875036176E-04  1.745662698E-03  3.349062709E+01  5.942600133E+02  6.853606034E-01 
        94  3.121859929E-03 -1.649999985E-03  9.874906111E-04  1.745662970E-03  3.349460549E+01  5.942599956E+02  6.853610634E-01 
        95  1.285714191E-03 -1.649999950E-03  9.878538017E-04  1.745654813E-03  3.341550797E+01  5.942599823E+02  6.853517612E-01 
        96  1.816924899E-03 -1.650000049E-03  9.877480907E-04  1.745657073E-03  3.343153085E+01  5.942600177E+02  6.853538326E-01 
        97  2.170191834E-03 -1.650000044E-03  9.876810309E-04  1.745658549E-03  3.344555347E+01  5.942600177E+02  6.853554561E-01 
        98  1.202946298E-02 -1.649999953E-03  9.876343321E-04  1.712612061E-03  3.619322482E+01  5.942599822E+02  6.879210105E-01 
        99  1.214308635E-02 -1.649999988E-03  9.878858045E-04  1.689670412E-03  3.631521304E+01  5.942600000E+02  6.875952658E-01 
       100 -3.542577826E-04 -1.650000007E-03  9.881497301E-04  1.745649379E-03  3.339877865E+01  5.942600000E+02  6.853496216E-01 
       101  2.031021205E-04 -1.649999952E-03  9.880507533E-04  1.745651015E-03  3.339818204E+01  5.942599823E+02  6.853496787E-01 
       102  4.512136878E-04 -1.649999952E-03  9.880065915E-04  1.745651797E-03  3.339891767E+01  5.942599823E+02  6.853495928E-01 
       103  5.803136392E-04 -1.649999997E-03  9.879823968E-04  1.745652321E-03  3.340080581E+01  5.942600000E+02  6.853501327E-01 
       104  1.223776813E-02 -1.650000009E-03  9.880956075E-04  1.988706381E-03  3.641202419E+01  5.942600008E+02  6.809936887E-01 
       105 -1.968786396E-03 -1.649999951E-03  9.883890366E-04  1.745645884E-03  3.343423099E+01  5.942599823E+02  6.853547391E-01 
       106 -1.652977683E-03 -1.649999996E-03  9.883474365E-04  1.745646441E-03  3.342357857E+01  5.942600000E+02  6.853533712E-01 
       107 -1.155706233E-03 -1.649999999E-03  9.882811823E-04  1.745647346E-03  3.341037771E+01  5.942600000E+02  6.853514185E-01 
       108 -7.328599352E-04 -1.649999953E-03  9.882105507E-04  1.745648357E-03  3.340311130E+01  5.942599823E+02  6.853502577E-01 
       109  1.231666688E-02 -1.649999993E-03  9.882706246E-04  6.125513288E-03  3.647430038E+01  5.942600055E+02  6.344989626E-01 
       110 -1.238224737E-02 -1.650000051E-03  9.884166253E-04  7.128921132E-03  3.649121879E+01  5.942600532E+02  0.000000000E+00 
       111 -1.231697450E-02 -1.649999999E-03  9.884940960E-04  6.195086313E-03  3.647985480E+01  5.942600053E+02  6.362164129E-01 
       112 -2.327584992E-03 -1.649999952E-03  9.884358288E-04  1.745645426E-03  3.345035153E+01  5.942599823E+02  6.853567205E-01 
       113  1.238241434E-02 -1.650000051E-03  9.884166253E-04  7.064512409E-03  3.648397882E+01  5.942600532E+02  0.000000000E+00 
       114 -1.223864467E-02 -1.650000051E-03  9.885870638E-04  1.999882524E-03  3.641539817E+01  5.942600185E+02  6.810339410E-01 
       115 -1.214464338E-02 -1.649999994E-03  9.886984689E-04  1.686361330E-03  3.631787885E+01  5.942600000E+02  6.874285197E-01 
       116 -4.517199587E-03 -1.649999963E-03  9.887236864E-04  1.745644794E-03  3.360329467E+01  5.942599867E+02  6.853770792E-01 
       117 -4.414670316E-03 -1.650000033E-03  9.887104562E-04  1.745644767E-03  3.359372061E+01  5.942600133E+02  6.853756571E-01 
       118 -3.651595001E-03 -1.650000048E-03  9.886098026E-04  1.745644582E-03  3.353095592E+01  5.942600177E+02  6.853668153E-01 
       119 -3.094823677E-03 -1.650000049E-03  9.885372614E-04  1.745644750E-03  3.349191968E+01  5.942600177E+02  6.853618059E-01 
       120 -2.793029229E-03 -1.649999951E-03  9.884973581E-04  1.745644888E-03  3.347379278E+01  5.942599823E+02  6.853595661E-01 
       121 -1.203183536E-02 -1.650000008E-03  9.888320552E-04  1.710017365E-03  3.619591986E+01  5.942599999E+02  6.877698526E-01 
       122 -5.373331867E-03 -1.650000002E-03  9.888373881E-04  1.745646656E-03  3.369916092E+01  5.942600000E+02  6.853927682E-01 
       123 -4.706021831E-03 -1.649999978E-03  9.887486688E-04  1.745645201E-03  3.362377995E+01  5.942599911E+02  6.853804810E-01 
       124 -1.189645587E-02 -1.650000052E-03  9.889921867E-04  1.726469254E-03  3.605243907E+01  5.942600176E+02  6.875884827E-01 
       125 -5.769750150E-03 -1.650000058E-03  9.888914969E-04  1.745648315E-03  3.375169036E+01  5.942600177E+02  6.854025668E-01 
       126 -7.038392819E-03 -1.649999978E-03  9.890637268E-04  1.745657810E-03  3.395482387E+01  5.942599911E+02  6.854480381E-01 
       127 -6.777981764E-03 -1.650000004E-03  9.890279205E-04  1.745655583E-03  3.390999458E+01  5.942600000E+02  6.854376696E-01 
       128 -6.208507374E-03 -1.649999986E-03  9.889500532E-04  1.745650615E-03  3.381453372E+01  5.942600000E+02  6.854149485E-01 
       129 -1.173398426E-02 -1.649999973E-03  9.891839625E-04  1.735334855E-03  3.589582155E+01  5.942599911E+02  6.873317564E-01 
       130 -7.317166953E-03 -1.650000004E-03  9.891033433E-04  1.745662397E-03  3.401267719E+01  5.942600000E+02  6.854651315E-01 
       131 -8.713682192E-03 -1.650000053E-03  9.893002256E-04  1.745702142E-03  3.435754448E+01  5.942600177E+02  6.855931756E-01 
       132 -8.332633425E-03 -1.649999946E-03  9.892454469E-04  1.745688663E-03  3.425443708E+01  5.942599823E+02  6.855516149E-01 
       133 -7.874710432E-03 -1.649999955E-03  9.891805000E-04  1.745672738E-03  3.413497108E+01  5.942599823E+02  6.855025391E-01 
       134 -1.153899587E-02 -1.649999945E-03  9.894136741E-04  1.740370341E-03  3.572939312E+01  5.942599822E+02  6.870553056E-01 
       135 -9.733691370E-03 -1.650000000E-03  9.894490791E-04  1.745715428E-03  3.472314328E+01  5.942600000E+02  6.858369713E-01 
       136 -9.556210586E-03 -1.650000046E-03  9.894235574E-04  1.745747309E-03  3.464391689E+01  5.942600177E+02  6.857637434E-01 
       137 -9.266405885E-03 -1.650000050E-03  9.893819229E-04  1.745731376E-03  3.454338466E+01  5.942600177E+02  6.857033956E-01 
       138 -1.041736222E-02 -1.649999955E-03  9.895527119E-04  1.745600772E-03  3.503461412E+01  5.942599823E+02  6.861203751E-01 
       139 -1.130497527E-02 -1.649999952E-03  9.896886455E-04  1.743192879E-03  3.555265301E+01  5.942599822E+02  6.867766675E-01 
       140 -1.104863784E-02 -1.650000007E-03  9.896471749E-04  1.743893512E-03  3.540052322E+01  5.942600000E+02  6.865843788E-01 
       141  1.110265300E-02 -1.649999997E-03  1.972140752E-03  1.731455081E-03  3.477372691E+01  5.942600000E+02  6.879575692E-01 
       142  1.129766783E-02 -1.649999997E-03  1.972047450E-03  1.730245916E-03  3.482814199E+01  5.942600000E+02  6.882188071E-01 
       143  1.038834619E-02 -1.649999990E-03  1.972439484E-03  1.735723983E-03  3.457768045E+01  5.942600000E+02  6.870368512E-01 
       144  9.996815845E-03 -1.649999998E-03  1.972603110E-03  1.735931118E-03  3.447243746E+01  5.942600000E+02  6.867355864E-01 
       145  9.485811853E-03 -1.649999993E-03  1.972800993E-03  1.736183965E-03  3.433875840E+01  5.942600000E+02  6.863545612E-01 
       146  8.598398070E-03 -1.649999998E-03  1.973137196E-03  1.736115215E-03  3.412720371E+01  5.942600000E+02  6.859988012E-01 
       147  8.805409659E-03 -1.650000022E-03  1.973060752E-03  1.736130312E-03  3.417507708E+01  5.942600088E+02  6.860798073E-01 
       148  1.153328860E-02 -1.649999970E-03  1.973080771E-03  1.724386074E-03  3.488545715E+01  5.942599911E+02  6.886772775E-01 
       149  8.091608969E-03 -1.650000003E-03  1.973322042E-03  1.736082741E-03  3.402379026E+01  5.942600000E+02  6.858846495E-01 
       150  7.572601876E-03 -1.650000025E-03  1.973515861E-03  1.736054239E-03  3.392468136E+01  5.942600088E+02  6.857839347E-01 
       151  7.730469083E-03 -1.650000002E-03  1.973458047E-03  1.736060135E-03  3.395178082E+01  5.942600000E+02  6.858053264E-01 
