nodenumber     x-coordinate     y-coordinate     z-coordinate turb-kinetic-energy         pressure      temperature velocity-magnitude 
         1 -1.238224696E-02 -1.650000007E-03  0.000000000E+00  4.365243580E-03  4.238563604E+01  5.942600172E+02  0.000000000E+00 
         2 -1.231646687E-02 -1.649999949E-03  0.000000000E+00  2.099474426E-03  4.232013481E+01  5.942599823E+02  7.482378167E-01 
         3 -1.223752875E-02 -1.650000008E-03  0.000000000E+00  2.099474489E-03  4.215596170E+01  5.942600000E+02  7.482378390E-01 
         4 -1.214279805E-02 -1.649999951E-03  0.000000000E+00  2.099474426E-03  4.194294865E+01  5.942599823E+02  7.482378167E-01 
         5 -1.202911553E-02 -1.649999951E-03  0.000000000E+00  2.099474426E-03  4.169648578E+01  5.942599823E+02  7.482378167E-01 
         6 -1.189268779E-02 -1.650000001E-03  0.000000000E+00  2.099474489E-03  4.142418803E+01  5.942600000E+02  7.482378390E-01 
         7 -1.172896070E-02 -1.650000028E-03  0.000000000E+00  2.099474520E-03  4.113742938E+01  5.942600089E+02  7.482378501E-01 
         8 -1.153246726E-02 -1.649999968E-03  0.000000000E+00  2.099474457E-03  4.083911327E+01  5.942599911E+02  7.482378278E-01 
         9 -1.129664480E-02 -1.649999999E-03  0.000000000E+00  2.099474489E-03  4.039092903E+01  5.942600000E+02  7.482378390E-01 
        10 -1.104180182E-02 -1.649999952E-03  0.000000000E+00  2.099474426E-03  4.020551844E+01  5.942599823E+02  7.482378167E-01 
        11 -1.040965475E-02 -1.650000037E-03  0.000000000E+00  2.099474551E-03  3.975626051E+01  5.942600177E+02  7.482378613E-01 
        12 -9.727797567E-03 -1.649999974E-03  0.000000000E+00  2.099474457E-03  3.931138744E+01  5.942599911E+02  7.482378278E-01 
        13 -9.549135039E-03 -1.650000016E-03  0.000000000E+00  2.099474520E-03  3.919632564E+01  5.942600089E+02  7.482378501E-01 
        14 -9.257402967E-03 -1.649999996E-03  0.000000000E+00  2.099474489E-03  3.906229553E+01  5.942600000E+02  7.482378390E-01 
        15 -8.707201624E-03 -1.650000004E-03  0.000000000E+00  2.099474489E-03  3.881596418E+01  5.942600000E+02  7.482378390E-01 
        16 -8.327874969E-03 -1.650000002E-03  0.000000000E+00  2.099474489E-03  3.868317786E+01  5.942600000E+02  7.482378390E-01 
        17 -7.868819436E-03 -1.650000009E-03  0.000000000E+00  2.099474489E-03  3.852726178E+01  5.942600000E+02  7.482378390E-01 
        18 -7.309914944E-03 -1.650000005E-03  0.000000000E+00  2.099474489E-03  3.837386452E+01  5.942600000E+02  7.482378390E-01 
        19 -7.033056079E-03 -1.649999952E-03  0.000000000E+00  2.099474426E-03  3.830240459E+01  5.942599823E+02  7.482378167E-01 
        20 -6.774404682E-03 -1.650000049E-03  0.000000000E+00  2.099474551E-03  3.824874307E+01  5.942600177E+02  7.482378613E-01 
        21 -6.203718579E-03 -1.649999993E-03  0.000000000E+00  2.099474489E-03  3.813452842E+01  5.942600000E+02  7.482378390E-01 
        22 -5.764059055E-03 -1.650000057E-03  0.000000000E+00  2.099474551E-03  3.805821379E+01  5.942600177E+02  7.482378613E-01 
        23 -5.369046210E-03 -1.650000008E-03  0.000000000E+00  2.099474489E-03  3.799556626E+01  5.942600000E+02  7.482378390E-01 
        24 -4.703991919E-03 -1.649999998E-03  0.000000000E+00  2.099474489E-03  3.790621941E+01  5.942600000E+02  7.482378390E-01 
        25 -4.513416810E-03 -1.649999963E-03  0.000000000E+00  2.099474442E-03  3.788155500E+01  5.942599867E+02  7.482378223E-01 
        26 -4.409949101E-03 -1.650000002E-03  0.000000000E+00  2.099474489E-03  3.787016872E+01  5.942600000E+02  7.482378390E-01 
        27 -3.648226494E-03 -1.649999989E-03  0.000000000E+00  2.099474489E-03  3.779635096E+01  5.942600000E+02  7.482378390E-01 
        28 -3.090814824E-03 -1.649999990E-03  0.000000000E+00  2.099474489E-03  3.774985786E+01  5.942600000E+02  7.482378390E-01 
        29 -2.790049428E-03 -1.649999975E-03  0.000000000E+00  2.099474457E-03  3.772862306E+01  5.942599911E+02  7.482378278E-01 
        30 -2.326109559E-03 -1.650000046E-03  0.000000000E+00  2.099474551E-03  3.770169547E+01  5.942600177E+02  7.482378613E-01 
        31 -1.966101120E-03 -1.650000005E-03  0.000000000E+00  2.099474489E-03  3.768303984E+01  5.942600000E+02  7.482378390E-01 
        32 -1.649288649E-03 -1.650000004E-03  0.000000000E+00  2.099474489E-03  3.767103455E+01  5.942600000E+02  7.482378390E-01 
        33 -1.153324779E-03 -1.650000049E-03  0.000000000E+00  2.099474551E-03  3.765665361E+01  5.942600177E+02  7.482378613E-01 
        34 -7.314993435E-04 -1.649999992E-03  0.000000000E+00  2.099474489E-03  3.764853141E+01  5.942600000E+02  7.482378390E-01 
        35 -3.521276869E-04 -1.650000043E-03  0.000000000E+00  2.099474551E-03  3.764391673E+01  5.942600177E+02  7.482378613E-01 
        36  2.062356178E-04 -1.650000004E-03  0.000000000E+00  2.099474489E-03  3.764342732E+01  5.942600000E+02  7.482378390E-01 
        37  4.531226353E-04 -1.649999970E-03  0.000000000E+00  2.099474457E-03  3.764450298E+01  5.942599911E+02  7.482378278E-01 
        38  5.816147412E-04 -1.650000031E-03  0.000000000E+00  2.099474520E-03  3.764674930E+01  5.942600089E+02  7.482378501E-01 
        39  1.287381078E-03 -1.649999940E-03  0.000000000E+00  2.099474426E-03  3.766489664E+01  5.942599823E+02  7.482378167E-01 
        40  1.817906072E-03 -1.650000045E-03  0.000000000E+00  2.099474551E-03  3.768402233E+01  5.942600177E+02  7.482378613E-01 
        41  2.171618469E-03 -1.649999958E-03  0.000000000E+00  2.099474426E-03  3.770072701E+01  5.942599823E+02  7.482378167E-01 
        42  2.917015337E-03 -1.650000026E-03  0.000000000E+00  2.099474520E-03  3.774545264E+01  5.942600089E+02  7.482378501E-01 
        43  3.060138752E-03 -1.649999982E-03  0.000000000E+00  2.099474465E-03  3.775463610E+01  5.942599934E+02  7.482378306E-01 
        44  3.122627803E-03 -1.650000012E-03  0.000000000E+00  2.099474504E-03  3.775946743E+01  5.942600044E+02  7.482378445E-01 
        45  3.948750735E-03 -1.649999946E-03  0.000000000E+00  2.099474426E-03  3.783316308E+01  5.942599823E+02  7.482378167E-01 
        46  4.233552192E-03 -1.650000005E-03  0.000000000E+00  2.099474489E-03  3.786055523E+01  5.942600000E+02  7.482378390E-01 
        47  4.833507872E-03 -1.649999945E-03  0.000000000E+00  2.099474426E-03  3.793119643E+01  5.942599823E+02  7.482378167E-01 
        48  5.160210487E-03 -1.649999946E-03  0.000000000E+00  2.099474426E-03  3.797475186E+01  5.942599823E+02  7.482378167E-01 
        49  5.783248106E-03 -1.650000052E-03  0.000000000E+00  2.099474551E-03  3.807327308E+01  5.942600177E+02  7.482378613E-01 
        50  6.035984549E-03 -1.649999976E-03  0.000000000E+00  2.099474457E-03  3.811554616E+01  5.942599911E+02  7.482378278E-01 
        51  6.237400109E-03 -1.650000022E-03  0.000000000E+00  2.099474520E-03  3.815415974E+01  5.942600089E+02  7.482378501E-01 
        52  6.881112835E-03 -1.650000056E-03  0.000000000E+00  2.099474551E-03  3.828336086E+01  5.942600177E+02  7.482378613E-01 
        53  7.573470319E-03 -1.649999997E-03  0.000000000E+00  2.099474489E-03  3.845489861E+01  5.942600000E+02  7.482378390E-01 
        54  7.730792309E-03 -1.650000003E-03  0.000000000E+00  2.099474489E-03  3.849523274E+01  5.942600000E+02  7.482378390E-01 
        55  8.090815089E-03 -1.650000001E-03  0.000000000E+00  2.099474489E-03  3.861284933E+01  5.942600000E+02  7.482378390E-01 
        56  8.598449542E-03 -1.650000003E-03  0.000000000E+00  2.099474489E-03  3.878272769E+01  5.942600000E+02  7.482378390E-01 
        57  8.805739513E-03 -1.650000003E-03  0.000000000E+00  2.099474489E-03  3.887363919E+01  5.942600000E+02  7.482378390E-01 
        58  9.485623847E-03 -1.649999997E-03  0.000000000E+00  2.099474489E-03  3.918330789E+01  5.942600000E+02  7.482378390E-01 
        59  9.996717122E-03 -1.650000053E-03  0.000000000E+00  2.099474551E-03  3.950716621E+01  5.942600177E+02  7.482378613E-01 
        60  1.038796781E-02 -1.650000000E-03  0.000000000E+00  2.099474489E-03  3.976610812E+01  5.942600000E+02  7.482378390E-01 
        61  1.110225324E-02 -1.650000050E-03  0.000000000E+00  2.099474551E-03  4.027969704E+01  5.942600177E+02  7.482378613E-01 
        62  1.129715473E-02 -1.650000051E-03  0.000000000E+00  2.099474551E-03  4.042279515E+01  5.942600177E+02  7.482378613E-01 
        63  1.153289457E-02 -1.649999949E-03  0.000000000E+00  2.099474426E-03  4.088112883E+01  5.942599823E+02  7.482378167E-01 
        64  1.172932302E-02 -1.649999996E-03  0.000000000E+00  2.099474489E-03  4.118879501E+01  5.942600000E+02  7.482378390E-01 
        65  1.189299876E-02 -1.650000052E-03  0.000000000E+00  2.099474551E-03  4.148603163E+01  5.942600177E+02  7.482378613E-01 
        66  1.202938442E-02 -1.649999949E-03  0.000000000E+00  2.099474426E-03  4.176990851E+01  5.942599823E+02  7.482378167E-01 
        67  1.214303390E-02 -1.650000044E-03  0.000000000E+00  2.099474551E-03  4.202778889E+01  5.942600177E+02  7.482378613E-01 
        68  1.223773642E-02 -1.650000012E-03  0.000000000E+00  2.099474489E-03  4.225127228E+01  5.942600000E+02  7.482378390E-01 
        69  1.231665286E-02 -1.650000046E-03  0.000000000E+00  2.099474551E-03  4.242349252E+01  5.942600177E+02  7.482378613E-01 
        70  1.238241385E-02 -1.649999998E-03  0.000000000E+00  4.337459565E-03  4.249179713E+01  5.942600172E+02  0.000000000E+00 
        71  1.110245300E-02 -1.649999996E-03  9.860657205E-04  2.079297887E-03  3.996899852E+01  5.942599999E+02  7.497326198E-01 
        72  1.129741118E-02 -1.649999994E-03  9.860237298E-04  2.078736354E-03  4.010345387E+01  5.942599999E+02  7.498984531E-01 
        73  1.038815708E-02 -1.649999987E-03  9.861987235E-04  2.081278063E-03  3.949106320E+01  5.942600000E+02  7.491503920E-01 
        74  8.805574705E-03 -1.650000021E-03  9.864727040E-04  2.081324688E-03  3.876071129E+01  5.942600088E+02  7.486089476E-01 
        75  9.485717905E-03 -1.650000014E-03  9.863583903E-04  2.081376275E-03  3.902723922E+01  5.942600000E+02  7.487526006E-01 
        76  9.996766092E-03 -1.649999943E-03  9.862710097E-04  2.081322451E-03  3.928674461E+01  5.942599823E+02  7.489745381E-01 
        77  7.730630904E-03 -1.650000039E-03  9.866502961E-04  2.081272960E-03  3.842363025E+01  5.942600133E+02  7.484715852E-01 
        78  8.091212126E-03 -1.649999999E-03  9.865892570E-04  2.081288022E-03  3.852972941E+01  5.942600000E+02  7.485104303E-01 
        79  8.598423723E-03 -1.649999983E-03  9.865066297E-04  2.081309752E-03  3.868250111E+01  5.942599911E+02  7.485664528E-01 
        80  1.153309208E-02 -1.650000032E-03  9.865404178E-04  2.075636252E-03  4.030624173E+01  5.942600088E+02  7.502177179E-01 
        81  7.573036225E-03 -1.650000030E-03  9.866765862E-04  2.081269200E-03  3.838608565E+01  5.942600088E+02  7.484615046E-01 
        82  5.783215100E-03 -1.650000004E-03  9.869826635E-04  2.081237886E-03  3.802886554E+01  5.942600000E+02  7.483779533E-01 
        83  6.035506259E-03 -1.649999949E-03  9.869375075E-04  2.081240571E-03  3.806727657E+01  5.942599823E+02  7.483844165E-01 
        84  6.236595952E-03 -1.650000002E-03  9.869024133E-04  2.081243647E-03  3.810418812E+01  5.942600000E+02  7.483923057E-01 
        85  6.880806203E-03 -1.649999944E-03  9.867931445E-04  2.081253113E-03  3.822641954E+01  5.942599823E+02  7.484177996E-01 
        86  1.172947215E-02 -1.650000029E-03  9.869723181E-04  2.070085905E-03  4.049803835E+01  5.942600088E+02  7.505366404E-01 
        87  4.832561986E-03 -1.649999941E-03  9.871570102E-04  2.081228858E-03  3.789545680E+01  5.942599823E+02  7.483565973E-01 
        88  5.159606270E-03 -1.650000004E-03  9.870976822E-04  2.081231538E-03  3.793775970E+01  5.942600000E+02  7.483628598E-01 
        89  3.947734035E-03 -1.649999955E-03  9.873277149E-04  2.081222343E-03  3.779881317E+01  5.942599823E+02  7.483431797E-01 
        90  4.232942892E-03 -1.649999946E-03  9.872707921E-04  2.081224283E-03  3.782606701E+01  5.942599823E+02  7.483465779E-01 
        91  1.189310817E-02 -1.649999954E-03  9.873330752E-04  2.060372399E-03  4.067915655E+01  5.942599822E+02  7.508344160E-01 
        92  2.914795121E-03 -1.649999999E-03  9.875323253E-04  2.081216024E-03  3.771536024E+01  5.942600000E+02  7.483331771E-01 
        93  3.058937451E-03 -1.650000039E-03  9.875036176E-04  2.081216860E-03  3.772429274E+01  5.942600133E+02  7.483341350E-01 
        94  3.121859929E-03 -1.649999985E-03  9.874906111E-04  2.081217174E-03  3.772887095E+01  5.942599956E+02  7.483346263E-01 
        95  1.285714191E-03 -1.649999950E-03  9.878538017E-04  2.081207633E-03  3.763733273E+01  5.942599823E+02  7.483247083E-01 
        96  1.816924899E-03 -1.650000049E-03  9.877480907E-04  2.081210296E-03  3.765601496E+01  5.942600177E+02  7.483269065E-01 
        97  2.170191834E-03 -1.650000044E-03  9.876810309E-04  2.081212025E-03  3.767227070E+01  5.942600177E+02  7.483286424E-01 
        98  1.202946298E-02 -1.649999953E-03  9.876343321E-04  2.042551991E-03  4.084564779E+01  5.942599822E+02  7.510517945E-01 
        99  1.214308635E-02 -1.649999988E-03  9.878858045E-04  2.014873161E-03  4.098728164E+01  5.942600000E+02  7.507209991E-01 
       100 -3.542577826E-04 -1.650000007E-03  9.881497301E-04  2.081201171E-03  3.761680289E+01  5.942600000E+02  7.483224313E-01 
       101  2.031021205E-04 -1.649999952E-03  9.880507533E-04  2.081203131E-03  3.761664797E+01  5.942599823E+02  7.483224907E-01 
       102  4.512136878E-04 -1.649999952E-03  9.880065915E-04  2.081204066E-03  3.761771779E+01  5.942599823E+02  7.483224275E-01 
       103  5.803136392E-04 -1.649999997E-03  9.879823968E-04  2.081204688E-03  3.761998096E+01  5.942600000E+02  7.483229785E-01 
       104  1.223776813E-02 -1.650000009E-03  9.880956075E-04  2.340403856E-03  4.109991217E+01  5.942600009E+02  7.437896020E-01 
       105 -1.968786396E-03 -1.649999951E-03  9.883890366E-04  2.081196884E-03  3.765547957E+01  5.942599823E+02  7.483278858E-01 
       106 -1.652977683E-03 -1.649999996E-03  9.883474365E-04  2.081197581E-03  3.764369063E+01  5.942600000E+02  7.483264080E-01 
       107 -1.155706233E-03 -1.649999999E-03  9.882811823E-04  2.081198702E-03  3.762919740E+01  5.942600000E+02  7.483242828E-01 
       108 -7.328599352E-04 -1.649999953E-03  9.882105507E-04  2.081199934E-03  3.762135533E+01  5.942599823E+02  7.483230904E-01 
       109  1.231666688E-02 -1.649999993E-03  9.882706246E-04  7.114892119E-03  4.117234210E+01  5.942600064E+02  6.942761369E-01 
       110 -1.238224737E-02 -1.650000051E-03  9.884166253E-04  8.273742646E-03  4.118127534E+01  5.942600599E+02  0.000000000E+00 
       111 -1.231697450E-02 -1.649999999E-03  9.884940960E-04  7.194554422E-03  4.116809386E+01  5.942600061E+02  6.961262345E-01 
       112 -2.327584992E-03 -1.649999952E-03  9.884358288E-04  2.081196291E-03  3.767343242E+01  5.942599823E+02  7.483300243E-01 
       113  1.238241434E-02 -1.650000051E-03  9.884166253E-04  8.199998122E-03  4.118359353E+01  5.942600599E+02  0.000000000E+00 
       114 -1.223864467E-02 -1.650000051E-03  9.885870638E-04  2.352530238E-03  4.109316624E+01  5.942600186E+02  7.438274535E-01 
       115 -1.214464338E-02 -1.649999994E-03  9.886984689E-04  2.010796279E-03  4.097952931E+01  5.942600000E+02  7.505367017E-01 
       116 -4.517199587E-03 -1.649999963E-03  9.887236864E-04  2.081195083E-03  3.784514027E+01  5.942599867E+02  7.483520295E-01 
       117 -4.414670316E-03 -1.650000033E-03  9.887104562E-04  2.081195081E-03  3.783433944E+01  5.942600133E+02  7.483504898E-01 
       118 -3.651595001E-03 -1.650000048E-03  9.886098026E-04  2.081195049E-03  3.776370804E+01  5.942600177E+02  7.483409261E-01 
       119 -3.094823677E-03 -1.650000049E-03  9.885372614E-04  2.081195367E-03  3.771988215E+01  5.942600177E+02  7.483355145E-01 
       120 -2.793029229E-03 -1.649999951E-03  9.884973581E-04  2.081195583E-03  3.769959394E+01  5.942599823E+02  7.483330981E-01 
       121 -1.203183536E-02 -1.650000008E-03  9.888320552E-04  2.039537900E-03  4.083793968E+01  5.942599999E+02  7.508816583E-01 
       122 -5.373331867E-03 -1.650000002E-03  9.888373881E-04  2.081196988E-03  3.795354566E+01  5.942600000E+02  7.483690444E-01 
       123 -4.706021831E-03 -1.649999978E-03  9.887486688E-04  2.081195500E-03  3.786830175E+01  5.942599911E+02  7.483557201E-01 
       124 -1.189645587E-02 -1.650000052E-03  9.889921867E-04  2.058669757E-03  4.067153623E+01  5.942600176E+02  7.506920241E-01 
       125 -5.769750150E-03 -1.650000058E-03  9.888914969E-04  2.081198782E-03  3.801312512E+01  5.942600177E+02  7.483796898E-01 
       126 -7.038392819E-03 -1.649999978E-03  9.890637268E-04  2.081209329E-03  3.824437753E+01  5.942599911E+02  7.484290007E-01 
       127 -6.777981764E-03 -1.650000004E-03  9.890279205E-04  2.081206843E-03  3.819329618E+01  5.942600000E+02  7.484177578E-01 
       128 -6.208507374E-03 -1.649999986E-03  9.889500532E-04  2.081201288E-03  3.808449967E+01  5.942600000E+02  7.483931282E-01 
       129 -1.173398426E-02 -1.649999973E-03  9.891839625E-04  2.069033236E-03  4.049021175E+01  5.942599911E+02  7.504218389E-01 
       130 -7.317166953E-03 -1.650000004E-03  9.891033433E-04  2.081214529E-03  3.831058913E+01  5.942600000E+02  7.484474590E-01 
       131 -8.713682192E-03 -1.650000053E-03  9.893002256E-04  2.081259637E-03  3.870668323E+01  5.942600177E+02  7.485849551E-01 
       132 -8.332633425E-03 -1.649999946E-03  9.892454469E-04  2.081244331E-03  3.858807995E+01  5.942599823E+02  7.485404002E-01 
       133 -7.874710432E-03 -1.649999955E-03  9.891805000E-04  2.081226260E-03  3.845065020E+01  5.942599823E+02  7.484878082E-01 
       134 -1.153899587E-02 -1.649999945E-03  9.894136741E-04  2.074944352E-03  4.029723341E+01  5.942599822E+02  7.501301596E-01 
       135 -9.733691370E-03 -1.650000000E-03  9.894490791E-04  2.081269435E-03  3.912953578E+01  5.942600000E+02  7.488437404E-01 
       136 -9.556210586E-03 -1.650000046E-03  9.894235574E-04  2.081309311E-03  3.903765370E+01  5.942600177E+02  7.487663071E-01 
       137 -9.266405885E-03 -1.650000050E-03  9.893819229E-04  2.081291805E-03  3.892145636E+01  5.942600177E+02  7.487021523E-01 
       138 -1.041736222E-02 -1.649999955E-03  9.895527119E-04  2.081125381E-03  3.949077125E+01  5.942599823E+02  7.491434208E-01 
       139 -1.130497527E-02 -1.649999952E-03  9.896886455E-04  2.078268004E-03  4.009220827E+01  5.942599822E+02  7.498360773E-01 
       140 -1.104863784E-02 -1.650000007E-03  9.896471749E-04  2.079099487E-03  3.991558240E+01  5.942599999E+02  7.496331486E-01 
       141  1.110265300E-02 -1.649999997E-03  1.972140752E-03  2.064290715E-03  3.920003691E+01  5.942600000E+02  7.510932867E-01 
       142  1.129766783E-02 -1.649999997E-03  1.972047450E-03  2.062860440E-03  3.926300698E+01  5.942600000E+02  7.513703476E-01 
       143  1.038834619E-02 -1.649999990E-03  1.972439484E-03  2.069340795E-03  3.897313955E+01  5.942600000E+02  7.501168013E-01 
       144  9.996815845E-03 -1.649999998E-03  1.972603110E-03  2.069591681E-03  3.885175935E+01  5.942600000E+02  7.497967211E-01 
       145  9.485811853E-03 -1.649999993E-03  1.972800993E-03  2.069898055E-03  3.869756254E+01  5.942600000E+02  7.493918958E-01 
       146  8.598398070E-03 -1.649999998E-03  1.973137196E-03  2.069822934E-03  3.845428464E+01  5.942600000E+02  7.490128767E-01 
       147  8.805409659E-03 -1.650000022E-03  1.973060752E-03  2.069839402E-03  3.850934554E+01  5.942600088E+02  7.490991786E-01 
       148  1.153328860E-02 -1.649999970E-03  1.973080771E-03  2.055958943E-03  3.932954147E+01  5.942599911E+02  7.518559907E-01 
       149  8.091608969E-03 -1.650000003E-03  1.973322042E-03  2.069786084E-03  3.833562907E+01  5.942600000E+02  7.488909266E-01 
       150  7.572601876E-03 -1.650000025E-03  1.973515861E-03  2.069753705E-03  3.822195705E+01  5.942600088E+02  7.487832850E-01 
       151  7.730469083E-03 -1.650000002E-03  1.973458047E-03  2.069760418E-03  3.825299967E+01  5.942600000E+02  7.488061805E-01 
