nodenumber     x-coordinate     y-coordinate     z-coordinate turb-kinetic-energy         pressure      temperature velocity-magnitude 
         1 -1.238224696E-02 -1.650000007E-03  0.000000000E+00  3.920839562E-03  3.896973743E+01  5.942600152E+02  0.000000000E+00 
         2 -1.231646687E-02 -1.649999949E-03  0.000000000E+00  1.859544493E-03  3.891053175E+01  5.942599823E+02  7.041864218E-01 
         3 -1.223752875E-02 -1.650000008E-03  0.000000000E+00  1.859544549E-03  3.876231884E+01  5.942600000E+02  7.041864428E-01 
         4 -1.214279805E-02 -1.649999951E-03  0.000000000E+00  1.859544493E-03  3.857019322E+01  5.942599823E+02  7.041864218E-01 
         5 -1.202911553E-02 -1.649999951E-03  0.000000000E+00  1.859544493E-03  3.834770473E+01  5.942599823E+02  7.041864218E-01 
         6 -1.189268779E-02 -1.650000001E-03  0.000000000E+00  1.859544549E-03  3.810159833E+01  5.942600000E+02  7.041864428E-01 
         7 -1.172896070E-02 -1.650000028E-03  0.000000000E+00  1.859544576E-03  3.784232255E+01  5.942600089E+02  7.041864533E-01 
         8 -1.153246726E-02 -1.649999968E-03  0.000000000E+00  1.859544521E-03  3.757263819E+01  5.942599911E+02  7.041864323E-01 
         9 -1.129664480E-02 -1.649999999E-03  0.000000000E+00  1.859544549E-03  3.716768666E+01  5.942600000E+02  7.041864428E-01 
        10 -1.104180182E-02 -1.649999952E-03  0.000000000E+00  1.859544493E-03  3.700024522E+01  5.942599823E+02  7.041864218E-01 
        11 -1.040965475E-02 -1.650000037E-03  0.000000000E+00  1.859544604E-03  3.659451627E+01  5.942600177E+02  7.041864638E-01 
        12 -9.727797567E-03 -1.649999974E-03  0.000000000E+00  1.859544521E-03  3.619281174E+01  5.942599911E+02  7.041864323E-01 
        13 -9.549135039E-03 -1.650000016E-03  0.000000000E+00  1.859544576E-03  3.608891133E+01  5.942600089E+02  7.041864533E-01 
        14 -9.257402967E-03 -1.649999996E-03  0.000000000E+00  1.859544549E-03  3.596778542E+01  5.942600000E+02  7.041864428E-01 
        15 -8.707201624E-03 -1.650000004E-03  0.000000000E+00  1.859544549E-03  3.574515826E+01  5.942600000E+02  7.041864428E-01 
        16 -8.327874969E-03 -1.650000002E-03  0.000000000E+00  1.859544549E-03  3.562491760E+01  5.942600000E+02  7.041864428E-01 
        17 -7.868819436E-03 -1.650000009E-03  0.000000000E+00  1.859544549E-03  3.548373361E+01  5.942600000E+02  7.041864428E-01 
        18 -7.309914944E-03 -1.650000005E-03  0.000000000E+00  1.859544549E-03  3.534449655E+01  5.942600000E+02  7.041864428E-01 
        19 -7.033056079E-03 -1.649999952E-03  0.000000000E+00  1.859544493E-03  3.527960612E+01  5.942599823E+02  7.041864218E-01 
        20 -6.774404682E-03 -1.650000049E-03  0.000000000E+00  1.859544604E-03  3.523074189E+01  5.942600177E+02  7.041864638E-01 
        21 -6.203718579E-03 -1.649999993E-03  0.000000000E+00  1.859544549E-03  3.512675264E+01  5.942600000E+02  7.041864428E-01 
        22 -5.764059055E-03 -1.650000057E-03  0.000000000E+00  1.859544604E-03  3.505710216E+01  5.942600177E+02  7.041864638E-01 
        23 -5.369046210E-03 -1.650000008E-03  0.000000000E+00  1.859544549E-03  3.499986933E+01  5.942600000E+02  7.041864428E-01 
        24 -4.703991919E-03 -1.649999998E-03  0.000000000E+00  1.859544549E-03  3.491805751E+01  5.942600000E+02  7.041864428E-01 
        25 -4.513416810E-03 -1.649999963E-03  0.000000000E+00  1.859544507E-03  3.489547134E+01  5.942599867E+02  7.041864271E-01 
        26 -4.409949101E-03 -1.650000002E-03  0.000000000E+00  1.859544549E-03  3.488502621E+01  5.942600000E+02  7.041864428E-01 
        27 -3.648226494E-03 -1.649999989E-03  0.000000000E+00  1.859544549E-03  3.481718145E+01  5.942600000E+02  7.041864428E-01 
        28 -3.090814824E-03 -1.649999990E-03  0.000000000E+00  1.859544549E-03  3.477437086E+01  5.942600000E+02  7.041864428E-01 
        29 -2.790049428E-03 -1.649999975E-03  0.000000000E+00  1.859544521E-03  3.475477098E+01  5.942599911E+02  7.041864323E-01 
        30 -2.326109559E-03 -1.650000046E-03  0.000000000E+00  1.859544604E-03  3.472986027E+01  5.942600177E+02  7.041864638E-01 
        31 -1.966101120E-03 -1.650000005E-03  0.000000000E+00  1.859544549E-03  3.471257464E+01  5.942600000E+02  7.041864428E-01 
        32 -1.649288649E-03 -1.650000004E-03  0.000000000E+00  1.859544549E-03  3.470139646E+01  5.942600000E+02  7.041864428E-01 
        33 -1.153324779E-03 -1.650000049E-03  0.000000000E+00  1.859544604E-03  3.468792072E+01  5.942600177E+02  7.041864638E-01 
        34 -7.314993435E-04 -1.649999992E-03  0.000000000E+00  1.859544549E-03  3.468022071E+01  5.942600000E+02  7.041864428E-01 
        35 -3.521276869E-04 -1.650000043E-03  0.000000000E+00  1.859544604E-03  3.467575488E+01  5.942600177E+02  7.041864638E-01 
        36  2.062356178E-04 -1.650000004E-03  0.000000000E+00  1.859544549E-03  3.467495990E+01  5.942600000E+02  7.041864428E-01 
        37  4.531226353E-04 -1.649999970E-03  0.000000000E+00  1.859544521E-03  3.467578919E+01  5.942599911E+02  7.041864323E-01 
        38  5.816147412E-04 -1.650000031E-03  0.000000000E+00  1.859544576E-03  3.467776120E+01  5.942600089E+02  7.041864533E-01 
        39  1.287381078E-03 -1.649999940E-03  0.000000000E+00  1.859544493E-03  3.469389451E+01  5.942599823E+02  7.041864218E-01 
        40  1.817906072E-03 -1.650000045E-03  0.000000000E+00  1.859544604E-03  3.471103243E+01  5.942600177E+02  7.041864638E-01 
        41  2.171618469E-03 -1.649999958E-03  0.000000000E+00  1.859544493E-03  3.472606593E+01  5.942599823E+02  7.041864218E-01 
        42  2.917015337E-03 -1.650000026E-03  0.000000000E+00  1.859544576E-03  3.476644231E+01  5.942600089E+02  7.041864533E-01 
        43  3.060138752E-03 -1.649999982E-03  0.000000000E+00  1.859544528E-03  3.477473937E+01  5.942599934E+02  7.041864350E-01 
        44  3.122627803E-03 -1.650000012E-03  0.000000000E+00  1.859544562E-03  3.477911148E+01  5.942600044E+02  7.041864481E-01 
        45  3.948750735E-03 -1.649999946E-03  0.000000000E+00  1.859544493E-03  3.484585281E+01  5.942599823E+02  7.041864218E-01 
        46  4.233552192E-03 -1.650000005E-03  0.000000000E+00  1.859544549E-03  3.487067563E+01  5.942600000E+02  7.041864428E-01 
        47  4.833507872E-03 -1.649999945E-03  0.000000000E+00  1.859544493E-03  3.493471183E+01  5.942599823E+02  7.041864218E-01 
        48  5.160210487E-03 -1.649999946E-03  0.000000000E+00  1.859544493E-03  3.497421506E+01  5.942599823E+02  7.041864218E-01 
        49  5.783248106E-03 -1.650000052E-03  0.000000000E+00  1.859544604E-03  3.506353249E+01  5.942600177E+02  7.041864638E-01 
        50  6.035984549E-03 -1.649999976E-03  0.000000000E+00  1.859544521E-03  3.510185615E+01  5.942599911E+02  7.041864323E-01 
        51  6.237400109E-03 -1.650000022E-03  0.000000000E+00  1.859544576E-03  3.513684355E+01  5.942600089E+02  7.041864533E-01 
        52  6.881112835E-03 -1.650000056E-03  0.000000000E+00  1.859544604E-03  3.525394120E+01  5.942600177E+02  7.041864638E-01 
        53  7.573470319E-03 -1.649999997E-03  0.000000000E+00  1.859544549E-03  3.540927950E+01  5.942600000E+02  7.041864428E-01 
        54  7.730792309E-03 -1.650000003E-03  0.000000000E+00  1.859544549E-03  3.544581052E+01  5.942600000E+02  7.041864428E-01 
        55  8.090815089E-03 -1.650000001E-03  0.000000000E+00  1.859544549E-03  3.555223358E+01  5.942600000E+02  7.041864428E-01 
        56  8.598449542E-03 -1.650000003E-03  0.000000000E+00  1.859544549E-03  3.570594475E+01  5.942600000E+02  7.041864428E-01 
        57  8.805739513E-03 -1.650000003E-03  0.000000000E+00  1.859544549E-03  3.578812984E+01  5.942600000E+02  7.041864428E-01 
        58  9.485623847E-03 -1.649999997E-03  0.000000000E+00  1.859544549E-03  3.606809281E+01  5.942600000E+02  7.041864428E-01 
        59  9.996717122E-03 -1.650000053E-03  0.000000000E+00  1.859544604E-03  3.636069129E+01  5.942600177E+02  7.041864638E-01 
        60  1.038796781E-02 -1.650000000E-03  0.000000000E+00  1.859544549E-03  3.659464247E+01  5.942600000E+02  7.041864428E-01 
        61  1.110225324E-02 -1.650000050E-03  0.000000000E+00  1.859544604E-03  3.705854109E+01  5.942600177E+02  7.041864638E-01 
        62  1.129715473E-02 -1.650000051E-03  0.000000000E+00  1.859544604E-03  3.718779472E+01  5.942600177E+02  7.041864638E-01 
        63  1.153289457E-02 -1.649999949E-03  0.000000000E+00  1.859544493E-03  3.760178169E+01  5.942599823E+02  7.041864218E-01 
        64  1.172932302E-02 -1.649999996E-03  0.000000000E+00  1.859544549E-03  3.787974922E+01  5.942600000E+02  7.041864428E-01 
        65  1.189299876E-02 -1.650000052E-03  0.000000000E+00  1.859544604E-03  3.814834615E+01  5.942600177E+02  7.041864638E-01 
        66  1.202938442E-02 -1.649999949E-03  0.000000000E+00  1.859544493E-03  3.840481106E+01  5.942599823E+02  7.041864218E-01 
        67  1.214303390E-02 -1.650000044E-03  0.000000000E+00  1.859544604E-03  3.863754195E+01  5.942600177E+02  7.041864638E-01 
        68  1.223773642E-02 -1.650000012E-03  0.000000000E+00  1.859544549E-03  3.883899168E+01  5.942600000E+02  7.041864428E-01 
        69  1.231665286E-02 -1.650000046E-03  0.000000000E+00  1.859544604E-03  3.899433055E+01  5.942600177E+02  7.041864638E-01 
        70  1.238241385E-02 -1.649999998E-03  0.000000000E+00  3.895348071E-03  3.905603156E+01  5.942600152E+02  0.000000000E+00 
        71  1.110245300E-02 -1.649999996E-03  9.860657205E-04  1.841683158E-03  3.677803745E+01  5.942599999E+02  7.056211244E-01 
        72  1.129741118E-02 -1.649999994E-03  9.860237298E-04  1.841184361E-03  3.689947996E+01  5.942599999E+02  7.057803983E-01 
        73  1.038815708E-02 -1.649999987E-03  9.861987235E-04  1.843441814E-03  3.634635946E+01  5.942600000E+02  7.050619223E-01 
        74  8.805574705E-03 -1.650000021E-03  9.864727040E-04  1.843475041E-03  3.568620116E+01  5.942600088E+02  7.045423918E-01 
        75  9.485717905E-03 -1.650000014E-03  9.863583903E-04  1.843522925E-03  3.592724909E+01  5.942600000E+02  7.046801184E-01 
        76  9.996766092E-03 -1.649999943E-03  9.862710097E-04  1.843478508E-03  3.616173499E+01  5.942599823E+02  7.048931372E-01 
        77  7.730630904E-03 -1.650000039E-03  9.866502961E-04  1.843427418E-03  3.538111522E+01  5.942600133E+02  7.044108487E-01 
        78  8.091212126E-03 -1.649999999E-03  9.865892570E-04  1.843441235E-03  3.547716805E+01  5.942600000E+02  7.044480278E-01 
        79  8.598423723E-03 -1.649999983E-03  9.865066297E-04  1.843461174E-03  3.561547364E+01  5.942599911E+02  7.045016494E-01 
        80  1.153309208E-02 -1.650000032E-03  9.865404178E-04  1.838415834E-03  3.708264034E+01  5.942600088E+02  7.060871896E-01 
        81  7.573036225E-03 -1.650000030E-03  9.866765862E-04  1.843423979E-03  3.534708963E+01  5.942600088E+02  7.044012184E-01 
        82  5.783215100E-03 -1.650000004E-03  9.869826635E-04  1.843395371E-03  3.502325607E+01  5.942600000E+02  7.043214585E-01 
        83  6.035506259E-03 -1.649999949E-03  9.869375075E-04  1.843397819E-03  3.505809833E+01  5.942599823E+02  7.043276158E-01 
        84  6.236595952E-03 -1.650000002E-03  9.869024133E-04  1.843400625E-03  3.509156392E+01  5.942600000E+02  7.043351416E-01 
        85  6.880806203E-03 -1.649999944E-03  9.867931445E-04  1.843409269E-03  3.520241360E+01  5.942599823E+02  7.043594586E-01 
        86  1.172947215E-02 -1.650000029E-03  9.869723181E-04  1.833449275E-03  3.725592805E+01  5.942600088E+02  7.063937514E-01 
        87  4.832561986E-03 -1.649999941E-03  9.871570102E-04  1.843387162E-03  3.490222695E+01  5.942599823E+02  7.043011165E-01 
        88  5.159606270E-03 -1.650000004E-03  9.870976822E-04  1.843389594E-03  3.494061476E+01  5.942600000E+02  7.043070812E-01 
        89  3.947734035E-03 -1.649999955E-03  9.873277149E-04  1.843381259E-03  3.481458443E+01  5.942599823E+02  7.042883422E-01 
        90  4.232942892E-03 -1.649999946E-03  9.872707921E-04  1.843383014E-03  3.483929339E+01  5.942599823E+02  7.042915756E-01 
        91  1.189310817E-02 -1.649999954E-03  9.873330752E-04  1.824732949E-03  3.741956976E+01  5.942599822E+02  7.066800520E-01 
        92  2.914795121E-03 -1.649999999E-03  9.875323253E-04  1.843375558E-03  3.473900012E+01  5.942600000E+02  7.042788214E-01 
        93  3.058937451E-03 -1.650000039E-03  9.875036176E-04  1.843376308E-03  3.474707355E+01  5.942600133E+02  7.042797333E-01 
        94  3.121859929E-03 -1.649999985E-03  9.874906111E-04  1.843376592E-03  3.475121784E+01  5.942599956E+02  7.042802009E-01 
        95  1.285714191E-03 -1.649999950E-03  9.878538017E-04  1.843368043E-03  3.466870526E+01  5.942599823E+02  7.042707522E-01 
        96  1.816924899E-03 -1.650000049E-03  9.877480907E-04  1.843370418E-03  3.468545280E+01  5.942600177E+02  7.042728530E-01 
        97  2.170191834E-03 -1.650000044E-03  9.876810309E-04  1.843371966E-03  3.470008650E+01  5.942600177E+02  7.042745031E-01 
        98  1.202946298E-02 -1.649999953E-03  9.876343321E-04  1.808683356E-03  3.756991020E+01  5.942599822E+02  7.068885108E-01 
        99  1.214308635E-02 -1.649999988E-03  9.878858045E-04  1.784346345E-03  3.769766268E+01  5.942600000E+02  7.065610462E-01 
       100 -3.542577826E-04 -1.650000007E-03  9.881497301E-04  1.843362313E-03  3.465098454E+01  5.942600000E+02  7.042685832E-01 
       101  2.031021205E-04 -1.649999952E-03  9.880507533E-04  1.843364042E-03  3.465048534E+01  5.942599823E+02  7.042686393E-01 
       102  4.512136878E-04 -1.649999952E-03  9.880065915E-04  1.843364869E-03  3.465130300E+01  5.942599823E+02  7.042685583E-01 
       103  5.803136392E-04 -1.649999997E-03  9.879823968E-04  1.843365421E-03  3.465329081E+01  5.942600000E+02  7.042691008E-01 
       104  1.223776813E-02 -1.650000009E-03  9.880956075E-04  2.091340095E-03  3.779911454E+01  5.942600008E+02  6.998596497E-01 
       105 -1.968786396E-03 -1.649999951E-03  9.883890366E-04  1.843358585E-03  3.468742827E+01  5.942599823E+02  7.042737846E-01 
       106 -1.652977683E-03 -1.649999996E-03  9.883474365E-04  1.843359183E-03  3.467643951E+01  5.942600000E+02  7.042723894E-01 
       107 -1.155706233E-03 -1.649999999E-03  9.882811823E-04  1.843360152E-03  3.466284852E+01  5.942600000E+02  7.042703946E-01 
       108 -7.328599352E-04 -1.649999953E-03  9.882105507E-04  1.843361228E-03  3.465539857E+01  5.942599823E+02  7.042692255E-01 
       109  1.231666688E-02 -1.649999993E-03  9.882706246E-04  6.416083095E-03  3.786437290E+01  5.942600058E+02  6.524498508E-01 
       110 -1.238224737E-02 -1.650000051E-03  9.884166253E-04  7.465258266E-03  3.787959384E+01  5.942600551E+02  0.000000000E+00 
       111 -1.231697450E-02 -1.649999999E-03  9.884940960E-04  6.488603468E-03  3.786769613E+01  5.942600055E+02  6.542032608E-01 
       112 -2.327584992E-03 -1.649999952E-03  9.884358288E-04  1.843358085E-03  3.470408304E+01  5.942599823E+02  7.042758049E-01 
       113  1.238241434E-02 -1.650000051E-03  9.884166253E-04  7.398131882E-03  3.787451374E+01  5.942600552E+02  0.000000000E+00 
       114 -1.223864467E-02 -1.650000051E-03  9.885870638E-04  2.102802013E-03  3.780016925E+01  5.942600185E+02  6.998968571E-01 
       115 -1.214464338E-02 -1.649999994E-03  9.886984689E-04  1.780809603E-03  3.769788943E+01  5.942600000E+02  7.063857660E-01 
       116 -4.517199587E-03 -1.649999963E-03  9.887236864E-04  1.843357268E-03  3.486240221E+01  5.942599867E+02  7.042965942E-01 
       117 -4.414670316E-03 -1.650000033E-03  9.887104562E-04  1.843357250E-03  3.485247977E+01  5.942600133E+02  7.042951399E-01 
       118 -3.651595001E-03 -1.650000048E-03  9.886098026E-04  1.843357117E-03  3.478747307E+01  5.942600177E+02  7.042861055E-01 
       119 -3.094823677E-03 -1.650000049E-03  9.885372614E-04  1.843357334E-03  3.474706383E+01  5.942600177E+02  7.042809917E-01 
       120 -2.793029229E-03 -1.649999951E-03  9.884973581E-04  1.843357496E-03  3.472831396E+01  5.942599823E+02  7.042787071E-01 
       121 -1.203183536E-02 -1.650000008E-03  9.888320552E-04  1.805961235E-03  3.757010250E+01  5.942599999E+02  7.067245127E-01 
       122 -5.373331867E-03 -1.650000002E-03  9.888373881E-04  1.843359128E-03  3.496181228E+01  5.942600000E+02  7.043126590E-01 
       123 -4.706021831E-03 -1.649999978E-03  9.887486688E-04  1.843357675E-03  3.488364393E+01  5.942599911E+02  7.043000782E-01 
       124 -1.189645587E-02 -1.650000052E-03  9.889921867E-04  1.823197341E-03  3.741989546E+01  5.942600176E+02  7.065439617E-01 
       125 -5.769750150E-03 -1.650000058E-03  9.888914969E-04  1.843360817E-03  3.501632543E+01  5.942600177E+02  7.043227106E-01 
       126 -7.038392819E-03 -1.649999978E-03  9.890637268E-04  1.843370591E-03  3.522735355E+01  5.942599911E+02  7.043693886E-01 
       127 -6.777981764E-03 -1.650000004E-03  9.890279205E-04  1.843368294E-03  3.518077029E+01  5.942600000E+02  7.043587425E-01 
       128 -6.208507374E-03 -1.649999986E-03  9.889500532E-04  1.843363167E-03  3.508156728E+01  5.942600000E+02  7.043354122E-01 
       129 -1.173398426E-02 -1.649999973E-03  9.891839625E-04  1.832501586E-03  3.725611221E+01  5.942599911E+02  7.062851430E-01 
       130 -7.317166953E-03 -1.650000004E-03  9.891033433E-04  1.843375356E-03  3.528755472E+01  5.942600000E+02  7.043869388E-01 
       131 -8.713682192E-03 -1.650000053E-03  9.893002256E-04  1.843416706E-03  3.564687215E+01  5.942600177E+02  7.045182145E-01 
       132 -8.332633425E-03 -1.649999946E-03  9.892454469E-04  1.843402676E-03  3.553938627E+01  5.942599823E+02  7.044756210E-01 
       133 -7.874710432E-03 -1.649999955E-03  9.891805000E-04  1.843386102E-03  3.541484143E+01  5.942599823E+02  7.044253330E-01 
       134 -1.153899587E-02 -1.649999945E-03  9.894136741E-04  1.837793691E-03  3.708188228E+01  5.942599822E+02  7.060052852E-01 
       135 -9.733691370E-03 -1.650000000E-03  9.894490791E-04  1.843428916E-03  3.602885820E+01  5.942600000E+02  7.047670401E-01 
       136 -9.556210586E-03 -1.650000046E-03  9.894235574E-04  1.843463231E-03  3.594597905E+01  5.942600177E+02  7.046924517E-01 
       137 -9.266405885E-03 -1.650000050E-03  9.893819229E-04  1.843446825E-03  3.584097388E+01  5.942600177E+02  7.046308102E-01 
       138 -1.041736222E-02 -1.649999955E-03  9.895527119E-04  1.843305283E-03  3.635468895E+01  5.942599823E+02  7.050557091E-01 
       139 -1.130497527E-02 -1.649999952E-03  9.896886455E-04  1.840763754E-03  3.689691570E+01  5.942599822E+02  7.057226583E-01 
       140 -1.104863784E-02 -1.650000007E-03  9.896471749E-04  1.841503310E-03  3.673768266E+01  5.942599999E+02  7.055272580E-01 
       141  1.110265300E-02 -1.649999997E-03  1.972140752E-03  1.828377589E-03  3.608375685E+01  5.942600000E+02  7.069262702E-01 
       142  1.129766783E-02 -1.649999997E-03  1.972047450E-03  1.827104002E-03  3.614058554E+01  5.942600000E+02  7.071923403E-01 
       143  1.038834619E-02 -1.649999990E-03  1.972439484E-03  1.832874087E-03  3.587898831E+01  5.942600000E+02  7.059885216E-01 
       144  9.996815845E-03 -1.649999998E-03  1.972603110E-03  1.833093733E-03  3.576924148E+01  5.942600000E+02  7.056813878E-01 
       145  9.485811853E-03 -1.649999993E-03  1.972800993E-03  1.833361879E-03  3.562983075E+01  5.942600000E+02  7.052929352E-01 
       146  8.598398070E-03 -1.649999998E-03  1.973137196E-03  1.833291021E-03  3.540948474E+01  5.942600000E+02  7.049297924E-01 
       147  8.805409659E-03 -1.650000022E-03  1.973060752E-03  1.833306577E-03  3.545935078E+01  5.942600088E+02  7.050124804E-01 
       148  1.153328860E-02 -1.649999970E-03  1.973080771E-03  1.820939950E-03  3.620053485E+01  5.942599911E+02  7.076590327E-01 
       149  8.091608969E-03 -1.650000003E-03  1.973322042E-03  1.833257246E-03  3.530186089E+01  5.942600000E+02  7.048131791E-01 
       150  7.572601876E-03 -1.650000025E-03  1.973515861E-03  1.833227602E-03  3.519872289E+01  5.942600088E+02  7.047102944E-01 
       151  7.730469083E-03 -1.650000002E-03  1.973458047E-03  1.833233730E-03  3.522691247E+01  5.942600000E+02  7.047321471E-01 
