nodenumber     x-coordinate     y-coordinate     z-coordinate turb-kinetic-energy         pressure      temperature velocity-magnitude 
         1 -1.238224696E-02 -1.650000007E-03  0.000000000E+00  4.907046816E-03  4.657115040E+01  5.942600195E+02  0.000000000E+00 
         2 -1.231646687E-02 -1.649999949E-03  0.000000000E+00  2.395659634E-03  4.649803735E+01  5.942599823E+02  7.992762663E-01 
         3 -1.223752875E-02 -1.650000008E-03  0.000000000E+00  2.395659705E-03  4.631453331E+01  5.942600000E+02  7.992762902E-01 
         4 -1.214279805E-02 -1.649999951E-03  0.000000000E+00  2.395659634E-03  4.607623413E+01  5.942599823E+02  7.992762663E-01 
         5 -1.202911553E-02 -1.649999951E-03  0.000000000E+00  2.395659634E-03  4.580078898E+01  5.942599823E+02  7.992762663E-01 
         6 -1.189268779E-02 -1.650000001E-03  0.000000000E+00  2.395659705E-03  4.549679322E+01  5.942600000E+02  7.992762902E-01 
         7 -1.172896070E-02 -1.650000028E-03  0.000000000E+00  2.395659741E-03  4.517671242E+01  5.942600089E+02  7.992763021E-01 
         8 -1.153246726E-02 -1.649999968E-03  0.000000000E+00  2.395659669E-03  4.484365197E+01  5.942599911E+02  7.992762783E-01 
         9 -1.129664480E-02 -1.649999999E-03  0.000000000E+00  2.395659705E-03  4.434301242E+01  5.942600000E+02  7.992762902E-01 
        10 -1.104180182E-02 -1.649999952E-03  0.000000000E+00  2.395659634E-03  4.413580678E+01  5.942599823E+02  7.992762663E-01 
        11 -1.040965475E-02 -1.650000037E-03  0.000000000E+00  2.395659776E-03  4.363375562E+01  5.942600177E+02  7.992763140E-01 
        12 -9.727797567E-03 -1.649999974E-03  0.000000000E+00  2.395659669E-03  4.313636793E+01  5.942599911E+02  7.992762783E-01 
        13 -9.549135039E-03 -1.650000016E-03  0.000000000E+00  2.395659741E-03  4.300773079E+01  5.942600089E+02  7.992763021E-01 
        14 -9.257402967E-03 -1.649999996E-03  0.000000000E+00  2.395659705E-03  4.285785081E+01  5.942600000E+02  7.992762902E-01 
        15 -8.707201624E-03 -1.650000004E-03  0.000000000E+00  2.395659705E-03  4.258239735E+01  5.942600000E+02  7.992762902E-01 
        16 -8.327874969E-03 -1.650000002E-03  0.000000000E+00  2.395659705E-03  4.243395442E+01  5.942600000E+02  7.992762902E-01 
        17 -7.868819436E-03 -1.650000009E-03  0.000000000E+00  2.395659705E-03  4.225967242E+01  5.942600000E+02  7.992762902E-01 
        18 -7.309914944E-03 -1.650000005E-03  0.000000000E+00  2.395659705E-03  4.208834097E+01  5.942600000E+02  7.992762902E-01 
        19 -7.033056079E-03 -1.649999952E-03  0.000000000E+00  2.395659634E-03  4.200854398E+01  5.942599823E+02  7.992762663E-01 
        20 -6.774404682E-03 -1.650000049E-03  0.000000000E+00  2.395659776E-03  4.194870401E+01  5.942600177E+02  7.992763140E-01 
        21 -6.203718579E-03 -1.649999993E-03  0.000000000E+00  2.395659705E-03  4.182134532E+01  5.942600000E+02  7.992762902E-01 
        22 -5.764059055E-03 -1.650000057E-03  0.000000000E+00  2.395659776E-03  4.173638129E+01  5.942600177E+02  7.992763140E-01 
        23 -5.369046210E-03 -1.650000008E-03  0.000000000E+00  2.395659705E-03  4.166668414E+01  5.942600000E+02  7.992762902E-01 
        24 -4.703991919E-03 -1.649999998E-03  0.000000000E+00  2.395659705E-03  4.156747420E+01  5.942600000E+02  7.992762902E-01 
        25 -4.513416810E-03 -1.649999963E-03  0.000000000E+00  2.395659652E-03  4.154009312E+01  5.942599867E+02  7.992762723E-01 
        26 -4.409949101E-03 -1.650000002E-03  0.000000000E+00  2.395659705E-03  4.152747614E+01  5.942600000E+02  7.992762902E-01 
        27 -3.648226494E-03 -1.649999989E-03  0.000000000E+00  2.395659705E-03  4.144583206E+01  5.942600000E+02  7.992762902E-01 
        28 -3.090814824E-03 -1.649999990E-03  0.000000000E+00  2.395659705E-03  4.139453072E+01  5.942600000E+02  7.992762902E-01 
        29 -2.790049428E-03 -1.649999975E-03  0.000000000E+00  2.395659669E-03  4.137116664E+01  5.942599911E+02  7.992762783E-01 
        30 -2.326109559E-03 -1.650000046E-03  0.000000000E+00  2.395659776E-03  4.134163479E+01  5.942600177E+02  7.992763140E-01 
        31 -1.966101120E-03 -1.650000005E-03  0.000000000E+00  2.395659705E-03  4.132122055E+01  5.942600000E+02  7.992762902E-01 
        32 -1.649288649E-03 -1.650000004E-03  0.000000000E+00  2.395659705E-03  4.130817965E+01  5.942600000E+02  7.992762902E-01 
        33 -1.153324779E-03 -1.650000049E-03  0.000000000E+00  2.395659776E-03  4.129269757E+01  5.942600177E+02  7.992763140E-01 
        34 -7.314993435E-04 -1.649999992E-03  0.000000000E+00  2.395659705E-03  4.128411295E+01  5.942600000E+02  7.992762902E-01 
        35 -3.521276869E-04 -1.650000043E-03  0.000000000E+00  2.395659776E-03  4.127939042E+01  5.942600177E+02  7.992763140E-01 
        36  2.062356178E-04 -1.650000004E-03  0.000000000E+00  2.395659705E-03  4.127945079E+01  5.942600000E+02  7.992762902E-01 
        37  4.531226353E-04 -1.649999970E-03  0.000000000E+00  2.395659669E-03  4.128091756E+01  5.942599911E+02  7.992762783E-01 
        38  5.816147412E-04 -1.650000031E-03  0.000000000E+00  2.395659741E-03  4.128356604E+01  5.942600089E+02  7.992763021E-01 
        39  1.287381078E-03 -1.649999940E-03  0.000000000E+00  2.395659634E-03  4.130459652E+01  5.942599823E+02  7.992762663E-01 
        40  1.817906072E-03 -1.650000045E-03  0.000000000E+00  2.395659776E-03  4.132653176E+01  5.942600177E+02  7.992763140E-01 
        41  2.171618469E-03 -1.649999958E-03  0.000000000E+00  2.395659634E-03  4.134556270E+01  5.942599823E+02  7.992762663E-01 
        42  2.917015337E-03 -1.650000026E-03  0.000000000E+00  2.395659741E-03  4.139629379E+01  5.942600089E+02  7.992763021E-01 
        43  3.060138752E-03 -1.649999982E-03  0.000000000E+00  2.395659678E-03  4.140669937E+01  5.942599934E+02  7.992762812E-01 
        44  3.122627803E-03 -1.650000012E-03  0.000000000E+00  2.395659723E-03  4.141215933E+01  5.942600044E+02  7.992762961E-01 
        45  3.948750735E-03 -1.649999946E-03  0.000000000E+00  2.395659634E-03  4.149530371E+01  5.942599823E+02  7.992762663E-01 
        46  4.233552192E-03 -1.650000005E-03  0.000000000E+00  2.395659705E-03  4.152617083E+01  5.942600000E+02  7.992762902E-01 
        47  4.833507872E-03 -1.649999945E-03  0.000000000E+00  2.395659634E-03  4.160565329E+01  5.942599823E+02  7.992762663E-01 
        48  5.160210487E-03 -1.649999946E-03  0.000000000E+00  2.395659634E-03  4.165462031E+01  5.942599823E+02  7.992762663E-01 
        49  5.783248106E-03 -1.650000052E-03  0.000000000E+00  2.395659776E-03  4.176530907E+01  5.942600177E+02  7.992763140E-01 
        50  6.035984549E-03 -1.649999976E-03  0.000000000E+00  2.395659669E-03  4.181279239E+01  5.942599911E+02  7.992762783E-01 
        51  6.237400109E-03 -1.650000022E-03  0.000000000E+00  2.395659741E-03  4.185612857E+01  5.942600089E+02  7.992763021E-01 
        52  6.881112835E-03 -1.650000056E-03  0.000000000E+00  2.395659776E-03  4.200110969E+01  5.942600177E+02  7.992763140E-01 
        53  7.573470319E-03 -1.649999997E-03  0.000000000E+00  2.395659705E-03  4.219347034E+01  5.942600000E+02  7.992762902E-01 
        54  7.730792309E-03 -1.650000003E-03  0.000000000E+00  2.395659705E-03  4.223869504E+01  5.942600000E+02  7.992762902E-01 
        55  8.090815089E-03 -1.650000001E-03  0.000000000E+00  2.395659705E-03  4.237049068E+01  5.942600000E+02  7.992762902E-01 
        56  8.598449542E-03 -1.650000003E-03  0.000000000E+00  2.395659705E-03  4.256083854E+01  5.942600000E+02  7.992762902E-01 
        57  8.805739513E-03 -1.650000003E-03  0.000000000E+00  2.395659705E-03  4.266263753E+01  5.942600000E+02  7.992762902E-01 
        58  9.485623847E-03 -1.649999997E-03  0.000000000E+00  2.395659705E-03  4.300936785E+01  5.942600000E+02  7.992762902E-01 
        59  9.996717122E-03 -1.650000053E-03  0.000000000E+00  2.395659776E-03  4.337172796E+01  5.942600177E+02  7.992763140E-01 
        60  1.038796781E-02 -1.650000000E-03  0.000000000E+00  2.395659705E-03  4.366143981E+01  5.942600000E+02  7.992762902E-01 
        61  1.110225324E-02 -1.650000050E-03  0.000000000E+00  2.395659776E-03  4.423574046E+01  5.942600177E+02  7.992763140E-01 
        62  1.129715473E-02 -1.650000051E-03  0.000000000E+00  2.395659776E-03  4.439574842E+01  5.942600177E+02  7.992763140E-01 
        63  1.153289457E-02 -1.649999949E-03  0.000000000E+00  2.395659634E-03  4.490801697E+01  5.942599823E+02  7.992762663E-01 
        64  1.172932302E-02 -1.649999996E-03  0.000000000E+00  2.395659705E-03  4.525172375E+01  5.942600000E+02  7.992762902E-01 
        65  1.189299876E-02 -1.650000052E-03  0.000000000E+00  2.395659776E-03  4.558369047E+01  5.942600177E+02  7.992763140E-01 
        66  1.202938442E-02 -1.649999949E-03  0.000000000E+00  2.395659634E-03  4.590079833E+01  5.942599823E+02  7.992762663E-01 
        67  1.214303390E-02 -1.650000044E-03  0.000000000E+00  2.395659776E-03  4.618918089E+01  5.942600177E+02  7.992763140E-01 
        68  1.223773642E-02 -1.650000012E-03  0.000000000E+00  2.395659705E-03  4.643940635E+01  5.942600000E+02  7.992762902E-01 
        69  1.231665286E-02 -1.650000046E-03  0.000000000E+00  2.395659776E-03  4.663209926E+01  5.942600177E+02  7.992763140E-01 
        70  1.238241385E-02 -1.649999998E-03  0.000000000E+00  4.876504707E-03  4.670840208E+01  5.942600195E+02  0.000000000E+00 
        71  1.110245300E-02 -1.649999996E-03  9.860657205E-04  2.372623409E-03  4.388892576E+01  5.942599999E+02  8.008387182E-01 
        72  1.129741118E-02 -1.649999994E-03  9.860237298E-04  2.371984468E-03  4.403933867E+01  5.942599999E+02  8.010120146E-01 
        73  1.038815708E-02 -1.649999987E-03  9.861987235E-04  2.374876931E-03  4.335424955E+01  5.942600000E+02  8.002302997E-01 
        74  8.805574705E-03 -1.650000021E-03  9.864727040E-04  2.374941547E-03  4.253644243E+01  5.942600088E+02  7.996644868E-01 
        75  9.485717905E-03 -1.650000014E-03  9.863583903E-04  2.374997314E-03  4.283500441E+01  5.942600000E+02  7.998146166E-01 
        76  9.996766092E-03 -1.649999943E-03  9.862710097E-04  2.374931291E-03  4.312552459E+01  5.942599823E+02  8.000465341E-01 
        77  7.730630904E-03 -1.650000039E-03  9.866502961E-04  2.374885042E-03  4.215865503E+01  5.942600133E+02  7.995208919E-01 
        78  8.091212126E-03 -1.649999999E-03  9.865892570E-04  2.374901569E-03  4.227758606E+01  5.942600000E+02  7.995615048E-01 
        79  8.598423723E-03 -1.649999983E-03  9.865066297E-04  2.374925407E-03  4.244882442E+01  5.942599911E+02  7.996200764E-01 
        80  1.153309208E-02 -1.650000032E-03  9.865404178E-04  2.368477417E-03  4.426604125E+01  5.942600088E+02  8.013455879E-01 
        81  7.573036225E-03 -1.650000030E-03  9.866765862E-04  2.374880893E-03  4.211654772E+01  5.942600088E+02  7.995103443E-01 
        82  5.783215100E-03 -1.650000004E-03  9.869826635E-04  2.374846257E-03  4.171567511E+01  5.942600000E+02  7.994228851E-01 
        83  6.035506259E-03 -1.649999949E-03  9.869375075E-04  2.374849242E-03  4.175882883E+01  5.942599823E+02  7.994296584E-01 
        84  6.236595952E-03 -1.650000002E-03  9.869024133E-04  2.374852653E-03  4.180026487E+01  5.942600000E+02  7.994379191E-01 
        85  6.880806203E-03 -1.649999944E-03  9.867931445E-04  2.374863141E-03  4.193745409E+01  5.942599823E+02  7.994646155E-01 
        86  1.172947215E-02 -1.650000029E-03  9.869723181E-04  2.362211791E-03  4.448030815E+01  5.942600088E+02  8.016786747E-01 
        87  4.832561986E-03 -1.649999941E-03  9.871570102E-04  2.374836187E-03  4.156573388E+01  5.942599823E+02  7.994004949E-01 
        88  5.159606270E-03 -1.650000004E-03  9.870976822E-04  2.374839184E-03  4.161329871E+01  5.942600000E+02  7.994070649E-01 
        89  3.947734035E-03 -1.649999955E-03  9.873277149E-04  2.374828884E-03  4.145693003E+01  5.942599823E+02  7.993864140E-01 
        90  4.232942892E-03 -1.649999946E-03  9.872707921E-04  2.374831064E-03  4.148764634E+01  5.942599823E+02  7.993899826E-01 
        91  1.189310817E-02 -1.649999954E-03  9.873330752E-04  2.351279010E-03  4.468260476E+01  5.942599822E+02  8.019895187E-01 
        92  2.914795121E-03 -1.649999999E-03  9.875323253E-04  2.374821770E-03  4.136270235E+01  5.942600000E+02  7.993759071E-01 
        93  3.058937451E-03 -1.650000039E-03  9.875036176E-04  2.374822715E-03  4.137282520E+01  5.942600133E+02  7.993769134E-01 
        94  3.121859929E-03 -1.649999985E-03  9.874906111E-04  2.374823069E-03  4.137800084E+01  5.942599956E+02  7.993774295E-01 
        95  1.285714191E-03 -1.649999950E-03  9.878538017E-04  2.374812263E-03  4.127386332E+01  5.942599823E+02  7.993670167E-01 
        96  1.816924899E-03 -1.650000049E-03  9.877480907E-04  2.374815289E-03  4.129529177E+01  5.942600177E+02  7.993693212E-01 
        97  2.170191834E-03 -1.650000044E-03  9.876810309E-04  2.374817249E-03  4.131381729E+01  5.942600177E+02  7.993711468E-01 
        98  1.202946298E-02 -1.649999953E-03  9.876343321E-04  2.331300494E-03  4.486865474E+01  5.942599822E+02  8.022167823E-01 
        99  1.214308635E-02 -1.649999988E-03  9.878858045E-04  2.299584583E-03  4.502712395E+01  5.942600000E+02  8.018813554E-01 
       100 -3.542577826E-04 -1.650000007E-03  9.881497301E-04  2.374804886E-03  4.124912041E+01  5.942600000E+02  7.993646524E-01 
       101  2.031021205E-04 -1.649999952E-03  9.880507533E-04  2.374807131E-03  4.124957462E+01  5.942599823E+02  7.993647040E-01 
       102  4.512136878E-04 -1.649999952E-03  9.880065915E-04  2.374808202E-03  4.125104882E+01  5.942599823E+02  7.993646578E-01 
       103  5.803136392E-04 -1.649999997E-03  9.879823968E-04  2.374808911E-03  4.125371772E+01  5.942600000E+02  7.993652145E-01 
       104  1.223776813E-02 -1.650000009E-03  9.880956075E-04  2.646588911E-03  4.515332299E+01  5.942600010E+02  7.946870701E-01 
       105 -1.968786396E-03 -1.649999951E-03  9.883890366E-04  2.374799922E-03  4.129040933E+01  5.942599823E+02  7.993704535E-01 
       106 -1.652977683E-03 -1.649999996E-03  9.883474365E-04  2.374800736E-03  4.127761824E+01  5.942600000E+02  7.993688694E-01 
       107 -1.155706233E-03 -1.649999999E-03  9.882811823E-04  2.374802039E-03  4.126202787E+01  5.942600000E+02  7.993665610E-01 
       108 -7.328599352E-04 -1.649999953E-03  9.882105507E-04  2.374803462E-03  4.125376456E+01  5.942599823E+02  7.993653393E-01 
       109  1.231666688E-02 -1.649999993E-03  9.882706246E-04  7.962955971E-03  4.523444233E+01  5.942600071E+02  7.427804903E-01 
       110 -1.238224737E-02 -1.650000051E-03  9.884166253E-04  9.253980541E-03  4.522755205E+01  5.942600658E+02  0.000000000E+00 
       111 -1.231697450E-02 -1.649999999E-03  9.884940960E-04  8.051190265E-03  4.521281951E+01  5.942600069E+02  7.447412177E-01 
       112 -2.327584992E-03 -1.649999952E-03  9.884358288E-04  2.374799221E-03  4.131003063E+01  5.942599823E+02  7.993727389E-01 
       113  1.238241434E-02 -1.650000051E-03  9.884166253E-04  9.172292269E-03  4.524703871E+01  5.942600658E+02  0.000000000E+00 
       114 -1.223864467E-02 -1.650000051E-03  9.885870638E-04  2.659477774E-03  4.512893377E+01  5.942600187E+02  7.947262028E-01 
       115 -1.214464338E-02 -1.649999994E-03  9.886984689E-04  2.294851335E-03  4.500148279E+01  5.942600000E+02  8.016869615E-01 
       116 -4.517199587E-03 -1.649999963E-03  9.887236864E-04  2.374797602E-03  4.149928297E+01  5.942599867E+02  7.993961099E-01 
       117 -4.414670316E-03 -1.650000033E-03  9.887104562E-04  2.374797617E-03  4.148732644E+01  5.942600133E+02  7.993944812E-01 
       118 -3.651595001E-03 -1.650000048E-03  9.886098026E-04  2.374797681E-03  4.140928837E+01  5.942600177E+02  7.993843428E-01 
       119 -3.094823677E-03 -1.650000049E-03  9.885372614E-04  2.374798105E-03  4.136098552E+01  5.942600177E+02  7.993785974E-01 
       120 -2.793029229E-03 -1.649999951E-03  9.884973581E-04  2.374798379E-03  4.133868862E+01  5.942599823E+02  7.993760264E-01 
       121 -1.203183536E-02 -1.650000008E-03  9.888320552E-04  2.327931228E-03  4.484313339E+01  5.942599999E+02  8.020375681E-01 
       122 -5.373331867E-03 -1.650000002E-03  9.888373881E-04  2.374799598E-03  4.161954728E+01  5.942600000E+02  7.994140887E-01 
       123 -4.706021831E-03 -1.649999978E-03  9.887486688E-04  2.374798038E-03  4.152497303E+01  5.942599911E+02  7.994000096E-01 
       124 -1.189645587E-02 -1.650000052E-03  9.889921867E-04  2.349372060E-03  4.465716229E+01  5.942600176E+02  8.018391351E-01 
       125 -5.769750150E-03 -1.650000058E-03  9.888914969E-04  2.374801532E-03  4.168578365E+01  5.942600177E+02  7.994253118E-01 
       126 -7.038392819E-03 -1.649999978E-03  9.890637268E-04  2.374813008E-03  4.194339717E+01  5.942599911E+02  7.994771283E-01 
       127 -6.777981764E-03 -1.650000004E-03  9.890279205E-04  2.374810299E-03  4.188645954E+01  5.942600000E+02  7.994653204E-01 
       128 -6.208507374E-03 -1.649999986E-03  9.889500532E-04  2.374804242E-03  4.176519574E+01  5.942600000E+02  7.994394604E-01 
       129 -1.173398426E-02 -1.649999973E-03  9.891839625E-04  2.361030259E-03  4.445467191E+01  5.942599911E+02  8.015572151E-01 
       130 -7.317166953E-03 -1.650000004E-03  9.891033433E-04  2.374818698E-03  4.201732298E+01  5.942600000E+02  7.994964544E-01 
       131 -8.713682192E-03 -1.650000053E-03  9.893002256E-04  2.374867931E-03  4.246000390E+01  5.942600177E+02  7.996401598E-01 
       132 -8.332633425E-03 -1.649999946E-03  9.892454469E-04  2.374851229E-03  4.232739146E+01  5.942599823E+02  7.995936178E-01 
       133 -7.874710432E-03 -1.649999955E-03  9.891805000E-04  2.374831528E-03  4.217374496E+01  5.942599823E+02  7.995386830E-01 
       134 -1.153899587E-02 -1.649999945E-03  9.894136741E-04  2.367699772E-03  4.423911720E+01  5.942599822E+02  8.012528013E-01 
       135 -9.733691370E-03 -1.650000000E-03  9.894490791E-04  2.374873883E-03  4.293311207E+01  5.942600000E+02  7.999102080E-01 
       136 -9.556210586E-03 -1.650000046E-03  9.894235574E-04  2.374920788E-03  4.283030757E+01  5.942600177E+02  7.998294065E-01 
       137 -9.266405885E-03 -1.650000050E-03  9.893819229E-04  2.374902172E-03  4.270029747E+01  5.942600177E+02  7.997624589E-01 
       138 -1.041736222E-02 -1.649999955E-03  9.895527119E-04  2.374703988E-03  4.333731726E+01  5.942599822E+02  8.002229155E-01 
       139 -1.130497527E-02 -1.649999952E-03  9.896886455E-04  2.371457395E-03  4.400998872E+01  5.942599822E+02  8.009458417E-01 
       140 -1.104863784E-02 -1.650000007E-03  9.896471749E-04  2.372402153E-03  4.381243765E+01  5.942599999E+02  8.007340488E-01 
       141  1.110265300E-02 -1.649999997E-03  1.972140752E-03  2.355515875E-03  4.303048250E+01  5.942600000E+02  8.022607586E-01 
       142  1.129766783E-02 -1.649999997E-03  1.972047450E-03  2.353892741E-03  4.310116180E+01  5.942600000E+02  8.025501964E-01 
       143  1.038834619E-02 -1.649999990E-03  1.972439484E-03  2.361247361E-03  4.277579902E+01  5.942600000E+02  8.012406751E-01 
       144  9.996815845E-03 -1.649999998E-03  1.972603110E-03  2.361537558E-03  4.263961960E+01  5.942600000E+02  8.009062770E-01 
       145  9.485811853E-03 -1.649999993E-03  1.972800993E-03  2.361892055E-03  4.246660873E+01  5.942600000E+02  8.004833408E-01 
       146  8.598398070E-03 -1.649999998E-03  1.973137196E-03  2.361812805E-03  4.219371038E+01  5.942600000E+02  8.000872320E-01 
       147  8.805409659E-03 -1.650000022E-03  1.973060752E-03  2.361830142E-03  4.225548198E+01  5.942600088E+02  8.001774242E-01 
       148  1.153328860E-02 -1.649999970E-03  1.973080771E-03  2.346086518E-03  4.317588582E+01  5.942599911E+02  8.030573641E-01 
       149  8.091608969E-03 -1.650000003E-03  1.973322042E-03  2.361772443E-03  4.206059119E+01  5.942600000E+02  7.999597091E-01 
       150  7.572601876E-03 -1.650000025E-03  1.973515861E-03  2.361736917E-03  4.193304716E+01  5.942600088E+02  7.998471271E-01 
       151  7.730469083E-03 -1.650000002E-03  1.973458047E-03  2.361744322E-03  4.196788317E+01  5.942600000E+02  7.998710896E-01 
