nodenumber     x-coordinate     y-coordinate     z-coordinate turb-kinetic-energy         pressure      temperature velocity-magnitude 
         1 -1.238224696E-02 -1.650000007E-03  0.000000000E+00  4.911417171E-03  4.660566858E+01  5.942600196E+02  0.000000000E+00 
         2 -1.231646687E-02 -1.649999949E-03  0.000000000E+00  2.398063813E-03  4.653249450E+01  5.942599823E+02  7.996772251E-01 
         3 -1.223752875E-02 -1.650000008E-03  0.000000000E+00  2.398063884E-03  4.634883526E+01  5.942600000E+02  7.996772489E-01 
         4 -1.214279805E-02 -1.649999951E-03  0.000000000E+00  2.398063813E-03  4.611033305E+01  5.942599823E+02  7.996772251E-01 
         5 -1.202911553E-02 -1.649999951E-03  0.000000000E+00  2.398063813E-03  4.583465521E+01  5.942599823E+02  7.996772251E-01 
         6 -1.189268779E-02 -1.650000001E-03  0.000000000E+00  2.398063884E-03  4.553040490E+01  5.942600000E+02  7.996772489E-01 
         7 -1.172896070E-02 -1.650000028E-03  0.000000000E+00  2.398063920E-03  4.521005637E+01  5.942600089E+02  7.996772608E-01 
         8 -1.153246726E-02 -1.649999968E-03  0.000000000E+00  2.398063848E-03  4.487671662E+01  5.942599911E+02  7.996772370E-01 
         9 -1.129664480E-02 -1.649999999E-03  0.000000000E+00  2.398063884E-03  4.437565455E+01  5.942600000E+02  7.996772489E-01 
        10 -1.104180182E-02 -1.649999952E-03  0.000000000E+00  2.398063813E-03  4.416827326E+01  5.942599823E+02  7.996772251E-01 
        11 -1.040965475E-02 -1.650000037E-03  0.000000000E+00  2.398063956E-03  4.366579614E+01  5.942600177E+02  7.996772727E-01 
        12 -9.727797567E-03 -1.649999974E-03  0.000000000E+00  2.398063848E-03  4.316798315E+01  5.942599911E+02  7.996772370E-01 
        13 -9.549135039E-03 -1.650000016E-03  0.000000000E+00  2.398063920E-03  4.303923577E+01  5.942600089E+02  7.996772608E-01 
        14 -9.257402967E-03 -1.649999996E-03  0.000000000E+00  2.398063884E-03  4.288922624E+01  5.942600000E+02  7.996772489E-01 
        15 -8.707201624E-03 -1.650000004E-03  0.000000000E+00  2.398063884E-03  4.261353465E+01  5.942600000E+02  7.996772489E-01 
        16 -8.327874969E-03 -1.650000002E-03  0.000000000E+00  2.398063884E-03  4.246496255E+01  5.942600000E+02  7.996772489E-01 
        17 -7.868819436E-03 -1.650000009E-03  0.000000000E+00  2.398063884E-03  4.229052819E+01  5.942600000E+02  7.996772489E-01 
        18 -7.309914944E-03 -1.650000005E-03  0.000000000E+00  2.398063884E-03  4.211904696E+01  5.942600000E+02  7.996772489E-01 
        19 -7.033056079E-03 -1.649999952E-03  0.000000000E+00  2.398063813E-03  4.203918025E+01  5.942599823E+02  7.996772251E-01 
        20 -6.774404682E-03 -1.650000049E-03  0.000000000E+00  2.398063956E-03  4.197928811E+01  5.942600177E+02  7.996772727E-01 
        21 -6.203718579E-03 -1.649999993E-03  0.000000000E+00  2.398063884E-03  4.185181771E+01  5.942600000E+02  7.996772489E-01 
        22 -5.764059055E-03 -1.650000057E-03  0.000000000E+00  2.398063956E-03  4.176677964E+01  5.942600177E+02  7.996772727E-01 
        23 -5.369046210E-03 -1.650000008E-03  0.000000000E+00  2.398063884E-03  4.169702213E+01  5.942600000E+02  7.996772489E-01 
        24 -4.703991919E-03 -1.649999998E-03  0.000000000E+00  2.398063884E-03  4.159772720E+01  5.942600000E+02  7.996772489E-01 
        25 -4.513416810E-03 -1.649999963E-03  0.000000000E+00  2.398063831E-03  4.157032255E+01  5.942599867E+02  7.996772310E-01 
        26 -4.409949101E-03 -1.650000002E-03  0.000000000E+00  2.398063884E-03  4.155769484E+01  5.942600000E+02  7.996772489E-01 
        27 -3.648226494E-03 -1.649999989E-03  0.000000000E+00  2.398063884E-03  4.147598242E+01  5.942600000E+02  7.996772489E-01 
        28 -3.090814824E-03 -1.649999990E-03  0.000000000E+00  2.398063884E-03  4.142463900E+01  5.942600000E+02  7.996772489E-01 
        29 -2.790049428E-03 -1.649999975E-03  0.000000000E+00  2.398063848E-03  4.140125622E+01  5.942599911E+02  7.996772370E-01 
        30 -2.326109559E-03 -1.650000046E-03  0.000000000E+00  2.398063956E-03  4.137170143E+01  5.942600177E+02  7.996772727E-01 
        31 -1.966101120E-03 -1.650000005E-03  0.000000000E+00  2.398063884E-03  4.135127144E+01  5.942600000E+02  7.996772489E-01 
        32 -1.649288649E-03 -1.650000004E-03  0.000000000E+00  2.398063884E-03  4.133822118E+01  5.942600000E+02  7.996772489E-01 
        33 -1.153324779E-03 -1.650000049E-03  0.000000000E+00  2.398063956E-03  4.132272884E+01  5.942600177E+02  7.996772727E-01 
        34 -7.314993435E-04 -1.649999992E-03  0.000000000E+00  2.398063884E-03  4.131413971E+01  5.942600000E+02  7.996772489E-01 
        35 -3.521276869E-04 -1.650000043E-03  0.000000000E+00  2.398063956E-03  4.130941561E+01  5.942600177E+02  7.996772727E-01 
        36  2.062356178E-04 -1.650000004E-03  0.000000000E+00  2.398063884E-03  4.130947987E+01  5.942600000E+02  7.996772489E-01 
        37  4.531226353E-04 -1.649999970E-03  0.000000000E+00  2.398063848E-03  4.131094959E+01  5.942599911E+02  7.996772370E-01 
        38  5.816147412E-04 -1.650000031E-03  0.000000000E+00  2.398063920E-03  4.131360129E+01  5.942600089E+02  7.996772608E-01 
        39  1.287381078E-03 -1.649999940E-03  0.000000000E+00  2.398063813E-03  4.133465486E+01  5.942599823E+02  7.996772251E-01 
        40  1.817906072E-03 -1.650000045E-03  0.000000000E+00  2.398063956E-03  4.135661296E+01  5.942600177E+02  7.996772727E-01 
        41  2.171618469E-03 -1.649999958E-03  0.000000000E+00  2.398063813E-03  4.137566280E+01  5.942599823E+02  7.996772251E-01 
        42  2.917015337E-03 -1.650000026E-03  0.000000000E+00  2.398063920E-03  4.142644297E+01  5.942600089E+02  7.996772608E-01 
        43  3.060138752E-03 -1.649999982E-03  0.000000000E+00  2.398063857E-03  4.143685854E+01  5.942599934E+02  7.996772400E-01 
        44  3.122627803E-03 -1.650000012E-03  0.000000000E+00  2.398063902E-03  4.144232365E+01  5.942600044E+02  7.996772549E-01 
        45  3.948750735E-03 -1.649999946E-03  0.000000000E+00  2.398063813E-03  4.152554531E+01  5.942599823E+02  7.996772251E-01 
        46  4.233552192E-03 -1.650000005E-03  0.000000000E+00  2.398063884E-03  4.155644085E+01  5.942600000E+02  7.996772489E-01 
        47  4.833507872E-03 -1.649999945E-03  0.000000000E+00  2.398063813E-03  4.163599549E+01  5.942599823E+02  7.996772251E-01 
        48  5.160210487E-03 -1.649999946E-03  0.000000000E+00  2.398063813E-03  4.168500671E+01  5.942599823E+02  7.996772251E-01 
        49  5.783248106E-03 -1.650000052E-03  0.000000000E+00  2.398063956E-03  4.179579459E+01  5.942600177E+02  7.996772727E-01 
        50  6.035984549E-03 -1.649999976E-03  0.000000000E+00  2.398063848E-03  4.184332035E+01  5.942599911E+02  7.996772370E-01 
        51  6.237400109E-03 -1.650000022E-03  0.000000000E+00  2.398063920E-03  4.188669490E+01  5.942600089E+02  7.996772608E-01 
        52  6.881112835E-03 -1.650000056E-03  0.000000000E+00  2.398063956E-03  4.203180428E+01  5.942600177E+02  7.996772727E-01 
        53  7.573470319E-03 -1.649999997E-03  0.000000000E+00  2.398063884E-03  4.222433372E+01  5.942600000E+02  7.996772489E-01 
        54  7.730792309E-03 -1.650000003E-03  0.000000000E+00  2.398063884E-03  4.226959807E+01  5.942600000E+02  7.996772489E-01 
        55  8.090815089E-03 -1.650000001E-03  0.000000000E+00  2.398063884E-03  4.240150840E+01  5.942600000E+02  7.996772489E-01 
        56  8.598449542E-03 -1.650000003E-03  0.000000000E+00  2.398063884E-03  4.259202181E+01  5.942600000E+02  7.996772489E-01 
        57  8.805739513E-03 -1.650000003E-03  0.000000000E+00  2.398063884E-03  4.269390866E+01  5.942600000E+02  7.996772489E-01 
        58  9.485623847E-03 -1.649999997E-03  0.000000000E+00  2.398063884E-03  4.304093809E+01  5.942600000E+02  7.996772489E-01 
        59  9.996717122E-03 -1.650000053E-03  0.000000000E+00  2.398063956E-03  4.340360838E+01  5.942600177E+02  7.996772727E-01 
        60  1.038796781E-02 -1.650000000E-03  0.000000000E+00  2.398063884E-03  4.369356812E+01  5.942600000E+02  7.996772489E-01 
        61  1.110225324E-02 -1.650000050E-03  0.000000000E+00  2.398063956E-03  4.426835738E+01  5.942600177E+02  7.996772727E-01 
        62  1.129715473E-02 -1.650000051E-03  0.000000000E+00  2.398063956E-03  4.442850143E+01  5.942600177E+02  7.996772727E-01 
        63  1.153289457E-02 -1.649999949E-03  0.000000000E+00  2.398063813E-03  4.494120380E+01  5.942599823E+02  7.996772251E-01 
        64  1.172932302E-02 -1.649999996E-03  0.000000000E+00  2.398063884E-03  4.528520038E+01  5.942600000E+02  7.996772489E-01 
        65  1.189299876E-02 -1.650000052E-03  0.000000000E+00  2.398063956E-03  4.561744632E+01  5.942600177E+02  7.996772727E-01 
        66  1.202938442E-02 -1.649999949E-03  0.000000000E+00  2.398063813E-03  4.593482135E+01  5.942599823E+02  7.996772251E-01 
        67  1.214303390E-02 -1.650000044E-03  0.000000000E+00  2.398063956E-03  4.622344923E+01  5.942600177E+02  7.996772727E-01 
        68  1.223773642E-02 -1.650000012E-03  0.000000000E+00  2.398063884E-03  4.647388987E+01  5.942600000E+02  7.996772489E-01 
        69  1.231665286E-02 -1.650000046E-03  0.000000000E+00  2.398063956E-03  4.666674744E+01  5.942600177E+02  7.996772727E-01 
        70  1.238241385E-02 -1.649999998E-03  0.000000000E+00  4.880852759E-03  4.674311455E+01  5.942600196E+02  0.000000000E+00 
        71  1.110245300E-02 -1.649999996E-03  9.860657205E-04  2.375004372E-03  4.392125265E+01  5.942599999E+02  8.012402035E-01 
        72  1.129741118E-02 -1.649999994E-03  9.860237298E-04  2.374364803E-03  4.407179402E+01  5.942599999E+02  8.014135580E-01 
        73  1.038815708E-02 -1.649999987E-03  9.861987235E-04  2.377260111E-03  4.338611962E+01  5.942600000E+02  8.006315809E-01 
        74  8.805574705E-03 -1.650000021E-03  9.864727040E-04  2.377324876E-03  4.256760694E+01  5.942600088E+02  8.000655785E-01 
        75  9.485717905E-03 -1.650000014E-03  9.863583903E-04  2.377380676E-03  4.286642769E+01  5.942600000E+02  8.002157585E-01 
        76  9.996766092E-03 -1.649999943E-03  9.862710097E-04  2.377314553E-03  4.315719790E+01  5.942599823E+02  8.004477537E-01 
        77  7.730630904E-03 -1.650000039E-03  9.866502961E-04  2.377268333E-03  4.218949017E+01  5.942600133E+02  7.999219354E-01 
        78  8.091212126E-03 -1.649999999E-03  9.865892570E-04  2.377284872E-03  4.230852509E+01  5.942600000E+02  7.999625620E-01 
        79  8.598423723E-03 -1.649999983E-03  9.865066297E-04  2.377308727E-03  4.247991295E+01  5.942599911E+02  8.000211532E-01 
        80  1.153309208E-02 -1.650000032E-03  9.865404178E-04  2.370854459E-03  4.429868896E+01  5.942600088E+02  8.017472430E-01 
        81  7.573036225E-03 -1.650000030E-03  9.866765862E-04  2.377264181E-03  4.214734581E+01  5.942600088E+02  7.999113842E-01 
        82  5.783215100E-03 -1.650000004E-03  9.869826635E-04  2.377229518E-03  4.174611833E+01  5.942600000E+02  7.998238952E-01 
        83  6.035506259E-03 -1.649999949E-03  9.869375075E-04  2.377232507E-03  4.178931073E+01  5.942599823E+02  7.998306708E-01 
        84  6.236595952E-03 -1.650000002E-03  9.869024133E-04  2.377235920E-03  4.183078358E+01  5.942600000E+02  7.998389343E-01 
        85  6.880806203E-03 -1.649999944E-03  9.867931445E-04  2.377246416E-03  4.196809452E+01  5.942599823E+02  7.998656399E-01 
        86  1.172947215E-02 -1.650000029E-03  9.869723181E-04  2.364583049E-03  4.451313649E+01  5.942600088E+02  8.020804402E-01 
        87  4.832561986E-03 -1.649999941E-03  9.871570102E-04  2.377219440E-03  4.159604211E+01  5.942599823E+02  7.998014972E-01 
        88  5.159606270E-03 -1.650000004E-03  9.870976822E-04  2.377222440E-03  4.164364998E+01  5.942600000E+02  7.998080695E-01 
        89  3.947734035E-03 -1.649999955E-03  9.873277149E-04  2.377212131E-03  4.148713878E+01  5.942599823E+02  7.997874114E-01 
        90  4.232942892E-03 -1.649999946E-03  9.872707921E-04  2.377214313E-03  4.151788347E+01  5.942599823E+02  7.997909813E-01 
        91  1.189310817E-02 -1.649999954E-03  9.873330752E-04  2.353640418E-03  4.471560330E+01  5.942599822E+02  8.023913859E-01 
        92  2.914795121E-03 -1.649999999E-03  9.875323253E-04  2.377205010E-03  4.139282282E+01  5.942600000E+02  7.997769010E-01 
        93  3.058937451E-03 -1.650000039E-03  9.875036176E-04  2.377205956E-03  4.140295542E+01  5.942600133E+02  7.997779076E-01 
        94  3.121859929E-03 -1.649999985E-03  9.874906111E-04  2.377206310E-03  4.140813597E+01  5.942599956E+02  7.997784238E-01 
        95  1.285714191E-03 -1.649999950E-03  9.878538017E-04  2.377195494E-03  4.130389544E+01  5.942599823E+02  7.997680077E-01 
        96  1.816924899E-03 -1.650000049E-03  9.877480907E-04  2.377198523E-03  4.132534629E+01  5.942600177E+02  7.997703129E-01 
        97  2.170191834E-03 -1.650000044E-03  9.876810309E-04  2.377200485E-03  4.134389029E+01  5.942600177E+02  7.997721390E-01 
        98  1.202946298E-02 -1.649999953E-03  9.876343321E-04  2.333644497E-03  4.490181045E+01  5.942599822E+02  8.026187258E-01 
        99  1.214308635E-02 -1.649999988E-03  9.878858045E-04  2.301896162E-03  4.506041504E+01  5.942600000E+02  8.022832600E-01 
       100 -3.542577826E-04 -1.650000007E-03  9.881497301E-04  2.377188110E-03  4.127911937E+01  5.942600000E+02  7.997656437E-01 
       101  2.031021205E-04 -1.649999952E-03  9.880507533E-04  2.377190358E-03  4.127957797E+01  5.942599823E+02  7.997656948E-01 
       102  4.512136878E-04 -1.649999952E-03  9.880065915E-04  2.377191429E-03  4.128105523E+01  5.942599823E+02  7.997656485E-01 
       103  5.803136392E-04 -1.649999997E-03  9.879823968E-04  2.377192139E-03  4.128372738E+01  5.942600000E+02  7.997662052E-01 
       104  1.223776813E-02 -1.650000009E-03  9.880956075E-04  2.649069168E-03  4.518672323E+01  5.942600010E+02  7.950869243E-01 
       105 -1.968786396E-03 -1.649999951E-03  9.883890366E-04  2.377183141E-03  4.132043315E+01  5.942599823E+02  7.997714474E-01 
       106 -1.652977683E-03 -1.649999996E-03  9.883474365E-04  2.377183955E-03  4.130763298E+01  5.942600000E+02  7.997698626E-01 
       107 -1.155706233E-03 -1.649999999E-03  9.882811823E-04  2.377185260E-03  4.129203240E+01  5.942600000E+02  7.997675531E-01 
       108 -7.328599352E-04 -1.649999953E-03  9.882105507E-04  2.377186685E-03  4.128376495E+01  5.942599823E+02  7.997663310E-01 
       109  1.231666688E-02 -1.649999993E-03  9.882706246E-04  7.969780237E-03  4.526791242E+01  5.942600071E+02  7.431617204E-01 
       110 -1.238224737E-02 -1.650000051E-03  9.884166253E-04  9.261864755E-03  4.526095116E+01  5.942600658E+02  0.000000000E+00 
       111 -1.231697450E-02 -1.649999999E-03  9.884940960E-04  8.058083317E-03  4.524620628E+01  5.942600069E+02  7.451233160E-01 
       112 -2.327584992E-03 -1.649999952E-03  9.884358288E-04  2.377182439E-03  4.134006944E+01  5.942599823E+02  7.997737340E-01 
       113  1.238241434E-02 -1.650000051E-03  9.884166253E-04  9.180112682E-03  4.528051959E+01  5.942600659E+02  0.000000000E+00 
       114 -1.223864467E-02 -1.650000051E-03  9.885870638E-04  2.661964009E-03  4.516224886E+01  5.942600187E+02  7.951260601E-01 
       115 -1.214464338E-02 -1.649999994E-03  9.886984689E-04  2.297157619E-03  4.503468709E+01  5.942600000E+02  8.020887775E-01 
       116 -4.517199587E-03 -1.649999963E-03  9.887236864E-04  2.377180817E-03  4.152947616E+01  5.942599867E+02  7.997971149E-01 
       117 -4.414670316E-03 -1.650000033E-03  9.887104562E-04  2.377180832E-03  4.151750950E+01  5.942600133E+02  7.997954855E-01 
       118 -3.651595001E-03 -1.650000048E-03  9.886098026E-04  2.377180896E-03  4.143940634E+01  5.942600177E+02  7.997853431E-01 
       119 -3.094823677E-03 -1.650000049E-03  9.885372614E-04  2.377181321E-03  4.139106409E+01  5.942600177E+02  7.997795953E-01 
       120 -2.793029229E-03 -1.649999951E-03  9.884973581E-04  2.377181595E-03  4.136874947E+01  5.942599823E+02  7.997770231E-01 
       121 -1.203183536E-02 -1.650000008E-03  9.888320552E-04  2.330272357E-03  4.487620295E+01  5.942599999E+02  8.024394260E-01 
       122 -5.373331867E-03 -1.650000002E-03  9.888373881E-04  2.377182814E-03  4.164984356E+01  5.942600000E+02  7.998151000E-01 
       123 -4.706021831E-03 -1.649999978E-03  9.887486688E-04  2.377181254E-03  4.155518835E+01  5.942599911E+02  7.998010159E-01 
       124 -1.189645587E-02 -1.650000052E-03  9.889921867E-04  2.351731808E-03  4.469007501E+01  5.942600176E+02  8.022409295E-01 
       125 -5.769750150E-03 -1.650000058E-03  9.888914969E-04  2.377184749E-03  4.171613735E+01  5.942600177E+02  7.998263269E-01 
       126 -7.038392819E-03 -1.649999978E-03  9.890637268E-04  2.377196233E-03  4.197397690E+01  5.942599911E+02  7.998781600E-01 
       127 -6.777981764E-03 -1.650000004E-03  9.890279205E-04  2.377193522E-03  4.191698946E+01  5.942600000E+02  7.998663482E-01 
       128 -6.208507374E-03 -1.649999986E-03  9.889500532E-04  2.377187460E-03  4.179561880E+01  5.942600000E+02  7.998404801E-01 
       129 -1.173398426E-02 -1.649999973E-03  9.891839625E-04  2.363400464E-03  4.448741487E+01  5.942599911E+02  8.019589200E-01 
       130 -7.317166953E-03 -1.650000004E-03  9.891033433E-04  2.377201926E-03  4.204796769E+01  5.942600000E+02  7.998974920E-01 
       131 -8.713682192E-03 -1.650000053E-03  9.893002256E-04  2.377251191E-03  4.249103786E+01  5.942600177E+02  8.000412416E-01 
       132 -8.332633425E-03 -1.649999946E-03  9.892454469E-04  2.377234478E-03  4.235830924E+01  5.942599823E+02  7.999946851E-01 
       133 -7.874710432E-03 -1.649999955E-03  9.891805000E-04  2.377214765E-03  4.220452734E+01  5.942599823E+02  7.999397336E-01 
       134 -1.153899587E-02 -1.649999945E-03  9.894136741E-04  2.370076109E-03  4.427167904E+01  5.942599822E+02  8.016544077E-01 
       135 -9.733691370E-03 -1.650000000E-03  9.894490791E-04  2.377257107E-03  4.296455781E+01  5.942600000E+02  8.003113757E-01 
       136 -9.556210586E-03 -1.650000046E-03  9.894235574E-04  2.377304070E-03  4.286166447E+01  5.942600177E+02  8.002305482E-01 
       137 -9.266405885E-03 -1.650000050E-03  9.893819229E-04  2.377285447E-03  4.273154101E+01  5.942600177E+02  8.001635794E-01 
       138 -1.041736222E-02 -1.649999955E-03  9.895527119E-04  2.377086997E-03  4.336911147E+01  5.942599822E+02  8.006241844E-01 
       139 -1.130497527E-02 -1.649999952E-03  9.896886455E-04  2.373837245E-03  4.404235702E+01  5.942599822E+02  8.013473475E-01 
       140 -1.104863784E-02 -1.650000007E-03  9.896471749E-04  2.374782922E-03  4.384463750E+01  5.942599999E+02  8.011354852E-01 
       141  1.110265300E-02 -1.649999997E-03  1.972140752E-03  2.357879795E-03  4.306209090E+01  5.942600000E+02  8.026627205E-01 
       142  1.129766783E-02 -1.649999997E-03  1.972047450E-03  2.356255098E-03  4.313283244E+01  5.942600000E+02  8.029522546E-01 
       143  1.038834619E-02 -1.649999990E-03  1.972439484E-03  2.363616800E-03  4.280718308E+01  5.942600000E+02  8.016422977E-01 
       144  9.996815845E-03 -1.649999998E-03  1.972603110E-03  2.363907318E-03  4.267088400E+01  5.942600000E+02  8.013077884E-01 
       145  9.485811853E-03 -1.649999993E-03  1.972800993E-03  2.364262208E-03  4.249772102E+01  5.942600000E+02  8.008847114E-01 
       146  8.598398070E-03 -1.649999998E-03  1.973137196E-03  2.364182927E-03  4.222458271E+01  5.942600000E+02  8.004884701E-01 
       147  8.805409659E-03 -1.650000022E-03  1.973060752E-03  2.364200270E-03  4.228640867E+01  5.942600088E+02  8.005786925E-01 
       148  1.153328860E-02 -1.649999970E-03  1.973080771E-03  2.348441555E-03  4.320762250E+01  5.942599911E+02  8.034595899E-01 
       149  8.091608969E-03 -1.650000003E-03  1.973322042E-03  2.364142537E-03  4.209134605E+01  5.942600000E+02  8.003609043E-01 
       150  7.572601876E-03 -1.650000025E-03  1.973515861E-03  2.364106986E-03  4.196368927E+01  5.942600088E+02  8.002482842E-01 
       151  7.730469083E-03 -1.650000002E-03  1.973458047E-03  2.364114396E-03  4.199855617E+01  5.942600000E+02  8.002722549E-01 
