nodenumber     x-coordinate     y-coordinate     z-coordinate turb-kinetic-energy         pressure      temperature velocity-magnitude 
         1 -1.238224696E-02 -1.650000007E-03  0.000000000E+00  4.600758783E-03  4.418794957E+01  5.942600182E+02  0.000000000E+00 
         2 -1.231646687E-02 -1.649999949E-03  0.000000000E+00  2.227754046E-03  4.411913152E+01  5.942599823E+02  7.707578919E-01 
         3 -1.223752875E-02 -1.650000008E-03  0.000000000E+00  2.227754113E-03  4.394654024E+01  5.942600000E+02  7.707579149E-01 
         4 -1.214279805E-02 -1.649999951E-03  0.000000000E+00  2.227754046E-03  4.372251272E+01  5.942599823E+02  7.707578919E-01 
         5 -1.202911553E-02 -1.649999951E-03  0.000000000E+00  2.227754046E-03  4.346341911E+01  5.942599823E+02  7.707578919E-01 
         6 -1.189268779E-02 -1.650000001E-03  0.000000000E+00  2.227754113E-03  4.317731238E+01  5.942600000E+02  7.707579149E-01 
         7 -1.172896070E-02 -1.650000028E-03  0.000000000E+00  2.227754146E-03  4.287604470E+01  5.942600089E+02  7.707579264E-01 
         8 -1.153246726E-02 -1.649999968E-03  0.000000000E+00  2.227754080E-03  4.256260614E+01  5.942599911E+02  7.707579034E-01 
         9 -1.129664480E-02 -1.649999999E-03  0.000000000E+00  2.227754113E-03  4.209159359E+01  5.942600000E+02  7.707579149E-01 
        10 -1.104180182E-02 -1.649999952E-03  0.000000000E+00  2.227754046E-03  4.189669775E+01  5.942599823E+02  7.707578919E-01 
        11 -1.040965475E-02 -1.650000037E-03  0.000000000E+00  2.227754179E-03  4.142446597E+01  5.942600177E+02  7.707579379E-01 
        12 -9.727797567E-03 -1.649999974E-03  0.000000000E+00  2.227754080E-03  4.095674692E+01  5.942599911E+02  7.707579034E-01 
        13 -9.549135039E-03 -1.650000016E-03  0.000000000E+00  2.227754146E-03  4.083577864E+01  5.942600089E+02  7.707579264E-01 
        14 -9.257402967E-03 -1.649999996E-03  0.000000000E+00  2.227754113E-03  4.069486163E+01  5.942600000E+02  7.707579149E-01 
        15 -8.707201624E-03 -1.650000004E-03  0.000000000E+00  2.227754113E-03  4.043588068E+01  5.942600000E+02  7.707579149E-01 
        16 -8.327874969E-03 -1.650000002E-03  0.000000000E+00  2.227754113E-03  4.029630981E+01  5.942600000E+02  7.707579149E-01 
        17 -7.868819436E-03 -1.650000009E-03  0.000000000E+00  2.227754113E-03  4.013243252E+01  5.942600000E+02  7.707579149E-01 
        18 -7.309914944E-03 -1.650000005E-03  0.000000000E+00  2.227754113E-03  3.997128375E+01  5.942600000E+02  7.707579149E-01 
        19 -7.033056079E-03 -1.649999952E-03  0.000000000E+00  2.227754046E-03  3.989622396E+01  5.942599823E+02  7.707578919E-01 
        20 -6.774404682E-03 -1.650000049E-03  0.000000000E+00  2.227754179E-03  3.983990303E+01  5.942600177E+02  7.707579379E-01 
        21 -6.203718579E-03 -1.649999993E-03  0.000000000E+00  2.227754113E-03  3.972002712E+01  5.942600000E+02  7.707579149E-01 
        22 -5.764059055E-03 -1.650000057E-03  0.000000000E+00  2.227754179E-03  3.963999602E+01  5.942600177E+02  7.707579379E-01 
        23 -5.369046210E-03 -1.650000008E-03  0.000000000E+00  2.227754113E-03  3.957432481E+01  5.942600000E+02  7.707579149E-01 
        24 -4.703991919E-03 -1.649999998E-03  0.000000000E+00  2.227754113E-03  3.948075435E+01  5.942600000E+02  7.707579149E-01 
        25 -4.513416810E-03 -1.649999963E-03  0.000000000E+00  2.227754063E-03  3.945492619E+01  5.942599867E+02  7.707578977E-01 
        26 -4.409949101E-03 -1.650000002E-03  0.000000000E+00  2.227754113E-03  3.944301287E+01  5.942600000E+02  7.707579149E-01 
        27 -3.648226494E-03 -1.649999989E-03  0.000000000E+00  2.227754113E-03  3.936585083E+01  5.942600000E+02  7.707579149E-01 
        28 -3.090814824E-03 -1.649999990E-03  0.000000000E+00  2.227754113E-03  3.931730202E+01  5.942600000E+02  7.707579149E-01 
        29 -2.790049428E-03 -1.649999975E-03  0.000000000E+00  2.227754080E-03  3.929515813E+01  5.942599911E+02  7.707579034E-01 
        30 -2.326109559E-03 -1.650000046E-03  0.000000000E+00  2.227754179E-03  3.926711696E+01  5.942600177E+02  7.707579379E-01 
        31 -1.966101120E-03 -1.650000005E-03  0.000000000E+00  2.227754113E-03  3.924770894E+01  5.942600000E+02  7.707579149E-01 
        32 -1.649288649E-03 -1.650000004E-03  0.000000000E+00  2.227754113E-03  3.923525898E+01  5.942600000E+02  7.707579149E-01 
        33 -1.153324779E-03 -1.650000049E-03  0.000000000E+00  2.227754179E-03  3.922040436E+01  5.942600177E+02  7.707579379E-01 
        34 -7.314993435E-04 -1.649999992E-03  0.000000000E+00  2.227754113E-03  3.921207930E+01  5.942600000E+02  7.707579149E-01 
        35 -3.521276869E-04 -1.650000043E-03  0.000000000E+00  2.227754179E-03  3.920741388E+01  5.942600177E+02  7.707579379E-01 
        36  2.062356178E-04 -1.650000004E-03  0.000000000E+00  2.227754113E-03  3.920715078E+01  5.942600000E+02  7.707579149E-01 
        37  4.531226353E-04 -1.649999970E-03  0.000000000E+00  2.227754080E-03  3.920838990E+01  5.942599911E+02  7.707579034E-01 
        38  5.816147412E-04 -1.650000031E-03  0.000000000E+00  2.227754146E-03  3.921080587E+01  5.942600089E+02  7.707579264E-01 
        39  1.287381078E-03 -1.649999940E-03  0.000000000E+00  2.227754046E-03  3.923017383E+01  5.942599823E+02  7.707578919E-01 
        40  1.817906072E-03 -1.650000045E-03  0.000000000E+00  2.227754179E-03  3.925049012E+01  5.942600177E+02  7.707579379E-01 
        41  2.171618469E-03 -1.649999958E-03  0.000000000E+00  2.227754046E-03  3.926818382E+01  5.942599823E+02  7.707578919E-01 
        42  2.917015337E-03 -1.650000026E-03  0.000000000E+00  2.227754146E-03  3.931546645E+01  5.942600089E+02  7.707579264E-01 
        43  3.060138752E-03 -1.649999982E-03  0.000000000E+00  2.227754088E-03  3.932517027E+01  5.942599934E+02  7.707579063E-01 
        44  3.122627803E-03 -1.650000012E-03  0.000000000E+00  2.227754129E-03  3.933026975E+01  5.942600044E+02  7.707579207E-01 
        45  3.948750735E-03 -1.649999946E-03  0.000000000E+00  2.227754046E-03  3.940800271E+01  5.942599823E+02  7.707578919E-01 
        46  4.233552192E-03 -1.650000005E-03  0.000000000E+00  2.227754113E-03  3.943688150E+01  5.942600000E+02  7.707579149E-01 
        47  4.833507872E-03 -1.649999945E-03  0.000000000E+00  2.227754046E-03  3.951131382E+01  5.942599823E+02  7.707578919E-01 
        48  5.160210487E-03 -1.649999946E-03  0.000000000E+00  2.227754046E-03  3.955719094E+01  5.942599823E+02  7.707578919E-01 
        49  5.783248106E-03 -1.650000052E-03  0.000000000E+00  2.227754179E-03  3.966094463E+01  5.942600177E+02  7.707579379E-01 
        50  6.035984549E-03 -1.649999976E-03  0.000000000E+00  2.227754080E-03  3.970545895E+01  5.942599911E+02  7.707579034E-01 
        51  6.237400109E-03 -1.650000022E-03  0.000000000E+00  2.227754146E-03  3.974610927E+01  5.942600089E+02  7.707579264E-01 
        52  6.881112835E-03 -1.650000056E-03  0.000000000E+00  2.227754179E-03  3.988211444E+01  5.942600177E+02  7.707579379E-01 
        53  7.573470319E-03 -1.649999997E-03  0.000000000E+00  2.227754113E-03  4.006265287E+01  5.942600000E+02  7.707579149E-01 
        54  7.730792309E-03 -1.650000003E-03  0.000000000E+00  2.227754113E-03  4.010510078E+01  5.942600000E+02  7.707579149E-01 
        55  8.090815089E-03 -1.650000001E-03  0.000000000E+00  2.227754113E-03  4.022885978E+01  5.942600000E+02  7.707579149E-01 
        56  8.598449542E-03 -1.650000003E-03  0.000000000E+00  2.227754113E-03  4.040760580E+01  5.942600000E+02  7.707579149E-01 
        57  8.805739513E-03 -1.650000003E-03  0.000000000E+00  2.227754113E-03  4.050324313E+01  5.942600000E+02  7.707579149E-01 
        58  9.485623847E-03 -1.649999997E-03  0.000000000E+00  2.227754113E-03  4.082899874E+01  5.942600000E+02  7.707579149E-01 
        59  9.996717122E-03 -1.650000053E-03  0.000000000E+00  2.227754179E-03  4.116959494E+01  5.942600177E+02  7.707579379E-01 
        60  1.038796781E-02 -1.650000000E-03  0.000000000E+00  2.227754113E-03  4.144191391E+01  5.942600000E+02  7.707579149E-01 
        61  1.110225324E-02 -1.650000050E-03  0.000000000E+00  2.227754179E-03  4.198191971E+01  5.942600177E+02  7.707579379E-01 
        62  1.129715473E-02 -1.650000051E-03  0.000000000E+00  2.227754179E-03  4.213237581E+01  5.942600177E+02  7.707579379E-01 
        63  1.153289457E-02 -1.649999949E-03  0.000000000E+00  2.227754046E-03  4.261418886E+01  5.942599823E+02  7.707578919E-01 
        64  1.172932302E-02 -1.649999996E-03  0.000000000E+00  2.227754113E-03  4.293754858E+01  5.942600000E+02  7.707579149E-01 
        65  1.189299876E-02 -1.650000052E-03  0.000000000E+00  2.227754179E-03  4.324990949E+01  5.942600177E+02  7.707579379E-01 
        66  1.202938442E-02 -1.649999949E-03  0.000000000E+00  2.227754046E-03  4.354825814E+01  5.942599823E+02  7.707578919E-01 
        67  1.214303390E-02 -1.650000044E-03  0.000000000E+00  2.227754179E-03  4.381941938E+01  5.942600177E+02  7.707579379E-01 
        68  1.223773642E-02 -1.650000012E-03  0.000000000E+00  2.227754113E-03  4.405454333E+01  5.942600000E+02  7.707579149E-01 
        69  1.231665286E-02 -1.650000046E-03  0.000000000E+00  2.227754179E-03  4.423567705E+01  5.942600177E+02  7.707579379E-01 
        70  1.238241385E-02 -1.649999998E-03  0.000000000E+00  4.571772674E-03  4.430746541E+01  5.942600182E+02  0.000000000E+00 
        71  1.110245300E-02 -1.649999996E-03  9.860657205E-04  2.206339085E-03  4.165547453E+01  5.942599999E+02  7.722827157E-01 
        72  1.129741118E-02 -1.649999994E-03  9.860237298E-04  2.205744007E-03  4.179687132E+01  5.942599999E+02  7.724518568E-01 
        73  1.038815708E-02 -1.649999987E-03  9.861987235E-04  2.208437711E-03  4.115285781E+01  5.942600000E+02  7.716888799E-01 
        74  8.805574705E-03 -1.650000021E-03  9.864727040E-04  2.208492002E-03  4.038453235E+01  5.942600088E+02  7.711366150E-01 
        75  9.485717905E-03 -1.650000014E-03  9.863583903E-04  2.208545435E-03  4.066495460E+01  5.942600000E+02  7.712831483E-01 
        76  9.996766092E-03 -1.649999943E-03  9.862710097E-04  2.208486378E-03  4.093793504E+01  5.942599823E+02  7.715095148E-01 
        77  7.730630904E-03 -1.650000039E-03  9.866502961E-04  2.208438175E-03  4.002982375E+01  5.942600133E+02  7.709964743E-01 
        78  8.091212126E-03 -1.649999999E-03  9.865892570E-04  2.208453880E-03  4.014147690E+01  5.942600000E+02  7.710361083E-01 
        79  8.598423723E-03 -1.649999983E-03  9.865066297E-04  2.208476534E-03  4.030224167E+01  5.942599911E+02  7.710932683E-01 
        80  1.153309208E-02 -1.650000032E-03  9.865404178E-04  2.202467341E-03  4.201006953E+01  5.942600088E+02  7.727774596E-01 
        81  7.573036225E-03 -1.650000030E-03  9.866765862E-04  2.208434245E-03  3.999030901E+01  5.942600088E+02  7.709861843E-01 
        82  5.783215100E-03 -1.650000004E-03  9.869826635E-04  2.208401481E-03  3.961427056E+01  5.942600000E+02  7.709008746E-01 
        83  6.035506259E-03 -1.649999949E-03  9.869375075E-04  2.208404297E-03  3.965471923E+01  5.942599823E+02  7.709074789E-01 
        84  6.236595952E-03 -1.650000002E-03  9.869024133E-04  2.208407518E-03  3.969357988E+01  5.942600000E+02  7.709155357E-01 
        85  6.880806203E-03 -1.649999944E-03  9.867931445E-04  2.208417430E-03  3.982225361E+01  5.942599823E+02  7.709415724E-01 
        86  1.172947215E-02 -1.650000029E-03  9.869723181E-04  2.196606521E-03  4.221165186E+01  5.942600088E+02  7.731026573E-01 
        87  4.832561986E-03 -1.649999941E-03  9.871570102E-04  2.208392001E-03  3.947376618E+01  5.942599823E+02  7.708790471E-01 
        88  5.159606270E-03 -1.650000004E-03  9.870976822E-04  2.208394818E-03  3.951832373E+01  5.942600000E+02  7.708854504E-01 
        89  3.947734035E-03 -1.649999955E-03  9.873277149E-04  2.208385144E-03  3.937191864E+01  5.942599823E+02  7.708653243E-01 
        90  4.232942892E-03 -1.649999946E-03  9.872707921E-04  2.208387189E-03  3.940065170E+01  5.942599823E+02  7.708688015E-01 
        91  1.189310817E-02 -1.649999954E-03  9.873330752E-04  2.186363471E-03  4.240199516E+01  5.942599822E+02  7.734062281E-01 
        92  2.914795121E-03 -1.649999999E-03  9.875323253E-04  2.208378482E-03  3.928387102E+01  5.942600000E+02  7.708550866E-01 
        93  3.058937451E-03 -1.650000039E-03  9.875036176E-04  2.208379365E-03  3.929330956E+01  5.942600133E+02  7.708560673E-01 
        94  3.121859929E-03 -1.649999985E-03  9.874906111E-04  2.208379696E-03  3.929814220E+01  5.942599956E+02  7.708565703E-01 
        95  1.285714191E-03 -1.649999950E-03  9.878538017E-04  2.208369609E-03  3.920125455E+01  5.942599823E+02  7.708464170E-01 
        96  1.816924899E-03 -1.650000049E-03  9.877480907E-04  2.208372428E-03  3.922109871E+01  5.942600177E+02  7.708486658E-01 
        97  2.170191834E-03 -1.650000044E-03  9.876810309E-04  2.208374257E-03  3.923831777E+01  5.942600177E+02  7.708504447E-01 
        98  1.202946298E-02 -1.649999953E-03  9.876343321E-04  2.167604888E-03  4.257700640E+01  5.942599822E+02  7.736280107E-01 
        99  1.214308635E-02 -1.649999988E-03  9.878858045E-04  2.138166758E-03  4.272597122E+01  5.942600000E+02  7.732952562E-01 
       100 -3.542577826E-04 -1.650000007E-03  9.881497301E-04  2.208362750E-03  3.917895541E+01  5.942600000E+02  7.708440871E-01 
       101  2.031021205E-04 -1.649999952E-03  9.880507533E-04  2.208364834E-03  3.917905108E+01  5.942599823E+02  7.708441475E-01 
       102  4.512136878E-04 -1.649999952E-03  9.880065915E-04  2.208365828E-03  3.918028926E+01  5.942599823E+02  7.708440945E-01 
       103  5.803136392E-04 -1.649999997E-03  9.879823968E-04  2.208366488E-03  3.918272310E+01  5.942600000E+02  7.708446491E-01 
       104  1.223776813E-02 -1.650000009E-03  9.880956075E-04  2.473173012E-03  4.284450841E+01  5.942600009E+02  7.662473961E-01 
       105 -1.968786396E-03 -1.649999951E-03  9.883890366E-04  2.208358169E-03  3.921876363E+01  5.942599823E+02  7.708496922E-01 
       106 -1.652977683E-03 -1.649999996E-03  9.883474365E-04  2.208358916E-03  3.920654461E+01  5.942600000E+02  7.708481667E-01 
       107 -1.155706233E-03 -1.649999999E-03  9.882811823E-04  2.208360117E-03  3.919157940E+01  5.942600000E+02  7.708459614E-01 
       108 -7.328599352E-04 -1.649999953E-03  9.882105507E-04  2.208361433E-03  3.918355200E+01  5.942599823E+02  7.708447565E-01 
       109  1.231666688E-02 -1.649999993E-03  9.882706246E-04  7.484036626E-03  4.292072318E+01  5.942600067E+02  7.156724149E-01 
       110 -1.238224737E-02 -1.650000051E-03  9.884166253E-04  8.700542778E-03  4.292310880E+01  5.942600624E+02  0.000000000E+00 
       111 -1.231697450E-02 -1.649999999E-03  9.884940960E-04  7.567444692E-03  4.290925175E+01  5.942600065E+02  7.175717222E-01 
       112 -2.327584992E-03 -1.649999952E-03  9.884358288E-04  2.208357528E-03  3.923742949E+01  5.942599823E+02  7.708518964E-01 
       113  1.238241434E-02 -1.650000051E-03  9.884166253E-04  8.623325989E-03  4.293256060E+01  5.942600625E+02  0.000000000E+00 
       114 -1.223864467E-02 -1.650000051E-03  9.885870638E-04  2.485635587E-03  4.283042413E+01  5.942600186E+02  7.662858598E-01 
       115 -1.214464338E-02 -1.649999994E-03  9.886984689E-04  2.133804395E-03  4.271078516E+01  5.942600000E+02  7.731065676E-01 
       116 -4.517199587E-03 -1.649999963E-03  9.887236864E-04  2.208356138E-03  3.941662301E+01  5.942599867E+02  7.708745286E-01 
       117 -4.414670316E-03 -1.650000033E-03  9.887104562E-04  2.208356144E-03  3.940532830E+01  5.942600133E+02  7.708729475E-01 
       118 -3.651595001E-03 -1.650000048E-03  9.886098026E-04  2.208356155E-03  3.933153843E+01  5.942600177E+02  7.708631175E-01 
       119 -3.094823677E-03 -1.650000049E-03  9.885372614E-04  2.208356520E-03  3.928580174E+01  5.942600177E+02  7.708575526E-01 
       120 -2.793029229E-03 -1.649999951E-03  9.884973581E-04  2.208356762E-03  3.926465727E+01  5.942599823E+02  7.708550658E-01 
       121 -1.203183536E-02 -1.650000008E-03  9.888320552E-04  2.164436532E-03  4.256190267E+01  5.942599999E+02  7.734543162E-01 
       122 -5.373331867E-03 -1.650000002E-03  9.888373881E-04  2.208358083E-03  3.953009517E+01  5.942600000E+02  7.708919937E-01 
       123 -4.706021831E-03 -1.649999978E-03  9.887486688E-04  2.208356564E-03  3.944086512E+01  5.942599911E+02  7.708783169E-01 
       124 -1.189645587E-02 -1.650000052E-03  9.889921867E-04  2.184572282E-03  4.238696771E+01  5.942600176E+02  7.732605393E-01 
       125 -5.769750150E-03 -1.650000058E-03  9.888914969E-04  2.208359939E-03  3.959252263E+01  5.942600177E+02  7.709029097E-01 
       126 -7.038392819E-03 -1.649999978E-03  9.890637268E-04  2.208370900E-03  3.983509254E+01  5.942599911E+02  7.709533847E-01 
       127 -6.777981764E-03 -1.650000004E-03  9.890279205E-04  2.208368314E-03  3.978149645E+01  5.942600000E+02  7.709418791E-01 
       128 -6.208507374E-03 -1.649999986E-03  9.889500532E-04  2.208362535E-03  3.966734245E+01  5.942600000E+02  7.709166793E-01 
       129 -1.173398426E-02 -1.649999973E-03  9.891839625E-04  2.195498086E-03  4.219641465E+01  5.942599911E+02  7.729850141E-01 
       130 -7.317166953E-03 -1.650000004E-03  9.891033433E-04  2.208376318E-03  3.990462866E+01  5.942600000E+02  7.709722405E-01 
       131 -8.713682192E-03 -1.650000053E-03  9.893002256E-04  2.208423267E-03  4.032086901E+01  5.942600177E+02  7.711125355E-01 
       132 -8.332633425E-03 -1.649999946E-03  9.892454469E-04  2.208407338E-03  4.019620188E+01  5.942599823E+02  7.710670880E-01 
       133 -7.874710432E-03 -1.649999955E-03  9.891805000E-04  2.208388540E-03  4.005174947E+01  5.942599823E+02  7.710134457E-01 
       134 -1.153899587E-02 -1.649999945E-03  9.894136741E-04  2.201738390E-03  4.199359133E+01  5.942599822E+02  7.726876062E-01 
       135 -9.733691370E-03 -1.650000000E-03  9.894490791E-04  2.208431492E-03  4.076557098E+01  5.942600000E+02  7.713763004E-01 
       136 -9.556210586E-03 -1.650000046E-03  9.894235574E-04  2.208474390E-03  4.066892943E+01  5.942600177E+02  7.712973828E-01 
       137 -9.266405885E-03 -1.650000050E-03  9.893819229E-04  2.208456380E-03  4.054672866E+01  5.942600177E+02  7.712319928E-01 
       138 -1.041736222E-02 -1.649999955E-03  9.895527119E-04  2.208276338E-03  4.114552773E+01  5.942599822E+02  7.716817243E-01 
       139 -1.130497527E-02 -1.649999952E-03  9.896886455E-04  2.205250326E-03  4.177804831E+01  5.942599822E+02  7.723877811E-01 
       140 -1.104863784E-02 -1.650000007E-03  9.896471749E-04  2.206130886E-03  4.159229121E+01  5.942599999E+02  7.721809278E-01 
       141  1.110265300E-02 -1.649999997E-03  1.972140752E-03  2.190422076E-03  4.084749885E+01  5.942600000E+02  7.736706686E-01 
       142  1.129766783E-02 -1.649999997E-03  1.972047450E-03  2.188908178E-03  4.091381500E+01  5.942600000E+02  7.739532205E-01 
       143  1.038834619E-02 -1.649999990E-03  1.972439484E-03  2.195767606E-03  4.060854133E+01  5.942600000E+02  7.726748409E-01 
       144  9.996815845E-03 -1.649999998E-03  1.972603110E-03  2.196035470E-03  4.048074626E+01  5.942600000E+02  7.723484012E-01 
       145  9.485811853E-03 -1.649999993E-03  1.972800993E-03  2.196362626E-03  4.031839456E+01  5.942600000E+02  7.719355318E-01 
       146  8.598398070E-03 -1.649999998E-03  1.973137196E-03  2.196285632E-03  4.006230134E+01  5.942600000E+02  7.715489047E-01 
       147  8.805409659E-03 -1.650000022E-03  1.973060752E-03  2.196302496E-03  4.012026559E+01  5.942600088E+02  7.716369384E-01 
       148  1.153328860E-02 -1.649999970E-03  1.973080771E-03  2.181614113E-03  4.098390738E+01  5.942599911E+02  7.744484088E-01 
       149  8.091608969E-03 -1.650000003E-03  1.973322042E-03  2.196247237E-03  3.993740249E+01  5.942600000E+02  7.714244638E-01 
       150  7.572601876E-03 -1.650000025E-03  1.973515861E-03  2.196213475E-03  3.981774705E+01  5.942600088E+02  7.713146115E-01 
       151  7.730469083E-03 -1.650000002E-03  1.973458047E-03  2.196220492E-03  3.985042272E+01  5.942600000E+02  7.713379864E-01 
