nodenumber     x-coordinate     y-coordinate     z-coordinate turb-kinetic-energy         pressure      temperature velocity-magnitude 
         1 -1.238224696E-02 -1.650000007E-03  0.000000000E+00  4.006225884E-03  3.962980053E+01  5.942600156E+02  0.000000000E+00 
         2 -1.231646687E-02 -1.649999949E-03  0.000000000E+00  1.905412433E-03  3.956938405E+01  5.942599823E+02  7.128183268E-01 
         3 -1.223752875E-02 -1.650000008E-03  0.000000000E+00  1.905412490E-03  3.941810062E+01  5.942600000E+02  7.128183480E-01 
         4 -1.214279805E-02 -1.649999951E-03  0.000000000E+00  1.905412433E-03  3.922196678E+01  5.942599823E+02  7.128183268E-01 
         5 -1.202911553E-02 -1.649999951E-03  0.000000000E+00  1.905412433E-03  3.899488277E+01  5.942599823E+02  7.128183268E-01 
         6 -1.189268779E-02 -1.650000001E-03  0.000000000E+00  1.905412490E-03  3.874374399E+01  5.942600000E+02  7.128183480E-01 
         7 -1.172896070E-02 -1.650000028E-03  0.000000000E+00  1.905412518E-03  3.847917857E+01  5.942600089E+02  7.128183586E-01 
         8 -1.153246726E-02 -1.649999968E-03  0.000000000E+00  1.905412461E-03  3.820398654E+01  5.942599911E+02  7.128183374E-01 
         9 -1.129664480E-02 -1.649999999E-03  0.000000000E+00  1.905412490E-03  3.779076554E+01  5.942600000E+02  7.128183480E-01 
        10 -1.104180182E-02 -1.649999952E-03  0.000000000E+00  1.905412433E-03  3.761992567E+01  5.942599823E+02  7.128183268E-01 
        11 -1.040965475E-02 -1.650000037E-03  0.000000000E+00  1.905412546E-03  3.720596427E+01  5.942600177E+02  7.128183692E-01 
        12 -9.727797567E-03 -1.649999974E-03  0.000000000E+00  1.905412461E-03  3.679621437E+01  5.942599911E+02  7.128183374E-01 
        13 -9.549135039E-03 -1.650000016E-03  0.000000000E+00  1.905412518E-03  3.669023298E+01  5.942600089E+02  7.128183586E-01 
        14 -9.257402967E-03 -1.649999996E-03  0.000000000E+00  1.905412490E-03  3.656673467E+01  5.942600000E+02  7.128183480E-01 
        15 -8.707201624E-03 -1.650000004E-03  0.000000000E+00  1.905412490E-03  3.633975369E+01  5.942600000E+02  7.128183480E-01 
        16 -8.327874969E-03 -1.650000002E-03  0.000000000E+00  1.905412490E-03  3.621722545E+01  5.942600000E+02  7.128183480E-01 
        17 -7.868819436E-03 -1.650000009E-03  0.000000000E+00  1.905412490E-03  3.607335524E+01  5.942600000E+02  7.128183480E-01 
        18 -7.309914944E-03 -1.650000005E-03  0.000000000E+00  1.905412490E-03  3.593153859E+01  5.942600000E+02  7.128183480E-01 
        19 -7.033056079E-03 -1.649999952E-03  0.000000000E+00  1.905412433E-03  3.586545251E+01  5.942599823E+02  7.128183268E-01 
        20 -6.774404682E-03 -1.650000049E-03  0.000000000E+00  1.905412546E-03  3.581571300E+01  5.942600177E+02  7.128183692E-01 
        21 -6.203718579E-03 -1.649999993E-03  0.000000000E+00  1.905412490E-03  3.570985892E+01  5.942600000E+02  7.128183480E-01 
        22 -5.764059055E-03 -1.650000057E-03  0.000000000E+00  1.905412546E-03  3.563898831E+01  5.942600177E+02  7.128183692E-01 
        23 -5.369046210E-03 -1.650000008E-03  0.000000000E+00  1.905412490E-03  3.558076368E+01  5.942600000E+02  7.128183480E-01 
        24 -4.703991919E-03 -1.649999998E-03  0.000000000E+00  1.905412490E-03  3.549756614E+01  5.942600000E+02  7.128183480E-01 
        25 -4.513416810E-03 -1.649999963E-03  0.000000000E+00  1.905412447E-03  3.547459795E+01  5.942599867E+02  7.128183321E-01 
        26 -4.409949101E-03 -1.650000002E-03  0.000000000E+00  1.905412490E-03  3.546397925E+01  5.942600000E+02  7.128183480E-01 
        27 -3.648226494E-03 -1.649999989E-03  0.000000000E+00  1.905412490E-03  3.539503101E+01  5.942600000E+02  7.128183480E-01 
        28 -3.090814824E-03 -1.649999990E-03  0.000000000E+00  1.905412490E-03  3.535153845E+01  5.942600000E+02  7.128183480E-01 
        29 -2.790049428E-03 -1.649999975E-03  0.000000000E+00  1.905412461E-03  3.533163499E+01  5.942599911E+02  7.128183374E-01 
        30 -2.326109559E-03 -1.650000046E-03  0.000000000E+00  1.905412546E-03  3.530634907E+01  5.942600177E+02  7.128183692E-01 
        31 -1.966101120E-03 -1.650000005E-03  0.000000000E+00  1.905412490E-03  3.528880819E+01  5.942600000E+02  7.128183480E-01 
        32 -1.649288649E-03 -1.650000004E-03  0.000000000E+00  1.905412490E-03  3.527747515E+01  5.942600000E+02  7.128183480E-01 
        33 -1.153324779E-03 -1.650000049E-03  0.000000000E+00  1.905412546E-03  3.526382855E+01  5.942600177E+02  7.128183692E-01 
        34 -7.314993435E-04 -1.649999992E-03  0.000000000E+00  1.905412490E-03  3.525604750E+01  5.942600000E+02  7.128183480E-01 
        35 -3.521276869E-04 -1.650000043E-03  0.000000000E+00  1.905412546E-03  3.525155123E+01  5.942600177E+02  7.128183692E-01 
        36  2.062356178E-04 -1.650000004E-03  0.000000000E+00  1.905412490E-03  3.525080825E+01  5.942600000E+02  7.128183480E-01 
        37  4.531226353E-04 -1.649999970E-03  0.000000000E+00  1.905412461E-03  3.525168097E+01  5.942599911E+02  7.128183374E-01 
        38  5.816147412E-04 -1.650000031E-03  0.000000000E+00  1.905412518E-03  3.525370236E+01  5.942600089E+02  7.128183586E-01 
        39  1.287381078E-03 -1.649999940E-03  0.000000000E+00  1.905412433E-03  3.527020003E+01  5.942599823E+02  7.128183268E-01 
        40  1.817906072E-03 -1.650000045E-03  0.000000000E+00  1.905412546E-03  3.528769782E+01  5.942600177E+02  7.128183692E-01 
        41  2.171618469E-03 -1.649999958E-03  0.000000000E+00  1.905412433E-03  3.530303479E+01  5.942599823E+02  7.128183268E-01 
        42  2.917015337E-03 -1.650000026E-03  0.000000000E+00  1.905412518E-03  3.534420006E+01  5.942600089E+02  7.128183586E-01 
        43  3.060138752E-03 -1.649999982E-03  0.000000000E+00  1.905412468E-03  3.535265806E+01  5.942599934E+02  7.128183400E-01 
        44  3.122627803E-03 -1.650000012E-03  0.000000000E+00  1.905412504E-03  3.535711335E+01  5.942600044E+02  7.128183533E-01 
        45  3.948750735E-03 -1.649999946E-03  0.000000000E+00  1.905412433E-03  3.542511682E+01  5.942599823E+02  7.128183268E-01 
        46  4.233552192E-03 -1.650000005E-03  0.000000000E+00  1.905412490E-03  3.545040479E+01  5.942600000E+02  7.128183480E-01 
        47  4.833507872E-03 -1.649999945E-03  0.000000000E+00  1.905412433E-03  3.551563994E+01  5.942599823E+02  7.128183268E-01 
        48  5.160210487E-03 -1.649999946E-03  0.000000000E+00  1.905412433E-03  3.555587802E+01  5.942599823E+02  7.128183268E-01 
        49  5.783248106E-03 -1.650000052E-03  0.000000000E+00  1.905412546E-03  3.564686457E+01  5.942600177E+02  7.128183692E-01 
        50  6.035984549E-03 -1.649999976E-03  0.000000000E+00  1.905412461E-03  3.568590637E+01  5.942599911E+02  7.128183374E-01 
        51  6.237400109E-03 -1.650000022E-03  0.000000000E+00  1.905412518E-03  3.572155461E+01  5.942600089E+02  7.128183586E-01 
        52  6.881112835E-03 -1.650000056E-03  0.000000000E+00  1.905412546E-03  3.584085698E+01  5.942600177E+02  7.128183692E-01 
        53  7.573470319E-03 -1.649999997E-03  0.000000000E+00  1.905412490E-03  3.599916247E+01  5.942600000E+02  7.128183480E-01 
        54  7.730792309E-03 -1.650000003E-03  0.000000000E+00  1.905412490E-03  3.603638999E+01  5.942600000E+02  7.128183480E-01 
        55  8.090815089E-03 -1.650000001E-03  0.000000000E+00  1.905412490E-03  3.614488114E+01  5.942600000E+02  7.128183480E-01 
        56  8.598449542E-03 -1.650000003E-03  0.000000000E+00  1.905412490E-03  3.630158299E+01  5.942600000E+02  7.128183480E-01 
        57  8.805739513E-03 -1.650000003E-03  0.000000000E+00  1.905412490E-03  3.638540041E+01  5.942600000E+02  7.128183480E-01 
        58  9.485623847E-03 -1.649999997E-03  0.000000000E+00  1.905412490E-03  3.667092108E+01  5.942600000E+02  7.128183480E-01 
        59  9.996717122E-03 -1.650000053E-03  0.000000000E+00  1.905412546E-03  3.696943586E+01  5.942600177E+02  7.128183692E-01 
        60  1.038796781E-02 -1.650000000E-03  0.000000000E+00  1.905412490E-03  3.720811921E+01  5.942600000E+02  7.128183480E-01 
        61  1.110225324E-02 -1.650000050E-03  0.000000000E+00  1.905412546E-03  3.768149912E+01  5.942600177E+02  7.128183692E-01 
        62  1.129715473E-02 -1.650000051E-03  0.000000000E+00  1.905412546E-03  3.781339616E+01  5.942600177E+02  7.128183692E-01 
        63  1.153289457E-02 -1.649999949E-03  0.000000000E+00  1.905412433E-03  3.823589049E+01  5.942599823E+02  7.128183268E-01 
        64  1.172932302E-02 -1.649999996E-03  0.000000000E+00  1.905412490E-03  3.851956716E+01  5.942600000E+02  7.128183480E-01 
        65  1.189299876E-02 -1.650000052E-03  0.000000000E+00  1.905412546E-03  3.879367293E+01  5.942600177E+02  7.128183692E-01 
        66  1.202938442E-02 -1.649999949E-03  0.000000000E+00  1.905412433E-03  3.905541167E+01  5.942599823E+02  7.128183268E-01 
        67  1.214303390E-02 -1.650000044E-03  0.000000000E+00  1.905412546E-03  3.929298069E+01  5.942600177E+02  7.128183692E-01 
        68  1.223773642E-02 -1.650000012E-03  0.000000000E+00  1.905412490E-03  3.949866938E+01  5.942600000E+02  7.128183480E-01 
        69  1.231665286E-02 -1.650000046E-03  0.000000000E+00  1.905412546E-03  3.965725755E+01  5.942600177E+02  7.128183692E-01 
        70  1.238241385E-02 -1.649999998E-03  0.000000000E+00  3.980282436E-03  3.972022987E+01  5.942600156E+02  0.000000000E+00 
        71  1.110245300E-02 -1.649999996E-03  9.860657205E-04  1.887108715E-03  3.739507254E+01  5.942599999E+02  7.142650781E-01 
        72  1.129741118E-02 -1.649999994E-03  9.860237298E-04  1.886597943E-03  3.751898492E+01  5.942599999E+02  7.144256512E-01 
        73  1.038815708E-02 -1.649999987E-03  9.861987235E-04  1.888909655E-03  3.695462020E+01  5.942600000E+02  7.137013127E-01 
        74  8.805574705E-03 -1.650000021E-03  9.864727040E-04  1.888945278E-03  3.628134620E+01  5.942600088E+02  7.131773104E-01 
        75  9.485717905E-03 -1.650000014E-03  9.863583903E-04  1.888993910E-03  3.652711721E+01  5.942600000E+02  7.133162695E-01 
        76  9.996766092E-03 -1.649999943E-03  9.862710097E-04  1.888947763E-03  3.676629818E+01  5.942599823E+02  7.135310956E-01 
        77  7.730630904E-03 -1.650000039E-03  9.866502961E-04  1.888896849E-03  3.597038139E+01  5.942600133E+02  7.130445405E-01 
        78  8.091212126E-03 -1.649999999E-03  9.865892570E-04  1.888910908E-03  3.606827367E+01  5.942600000E+02  7.130820734E-01 
        79  8.598423723E-03 -1.649999983E-03  9.865066297E-04  1.888931195E-03  3.620923204E+01  5.942599911E+02  7.131362037E-01 
        80  1.153309208E-02 -1.650000032E-03  9.865404178E-04  1.883765903E-03  3.770589629E+01  5.942600088E+02  7.147348821E-01 
        81  7.573036225E-03 -1.650000030E-03  9.866765862E-04  1.888893349E-03  3.593571615E+01  5.942600088E+02  7.130348147E-01 
        82  5.783215100E-03 -1.650000004E-03  9.869826635E-04  1.888864238E-03  3.560582502E+01  5.942600000E+02  7.129542620E-01 
        83  6.035506259E-03 -1.649999949E-03  9.869375075E-04  1.888866729E-03  3.564131374E+01  5.942599823E+02  7.129604808E-01 
        84  6.236595952E-03 -1.650000002E-03  9.869024133E-04  1.888869585E-03  3.567540364E+01  5.942600000E+02  7.129680821E-01 
        85  6.880806203E-03 -1.649999944E-03  9.867931445E-04  1.888878380E-03  3.578831481E+01  5.942599823E+02  7.129926433E-01 
        86  1.172947215E-02 -1.650000029E-03  9.869723181E-04  1.878687411E-03  3.788273665E+01  5.942600088E+02  7.150438612E-01 
        87  4.832561986E-03 -1.649999941E-03  9.871570102E-04  1.888855881E-03  3.548255834E+01  5.942599823E+02  7.129337194E-01 
        88  5.159606270E-03 -1.650000004E-03  9.870976822E-04  1.888858358E-03  3.552165456E+01  5.942600000E+02  7.129397411E-01 
        89  3.947734035E-03 -1.649999955E-03  9.873277149E-04  1.888849867E-03  3.539328583E+01  5.942599823E+02  7.129208241E-01 
        90  4.232942892E-03 -1.649999946E-03  9.872707921E-04  1.888851655E-03  3.541845506E+01  5.942599823E+02  7.129240876E-01 
        91  1.189310817E-02 -1.649999954E-03  9.873330752E-04  1.869779719E-03  3.804973992E+01  5.942599822E+02  7.153324172E-01 
        92  2.914795121E-03 -1.649999999E-03  9.875323253E-04  1.888844052E-03  3.531627390E+01  5.942600000E+02  7.129112183E-01 
        93  3.058937451E-03 -1.650000039E-03  9.875036176E-04  1.888844818E-03  3.532450342E+01  5.942600133E+02  7.129121379E-01 
        94  3.121859929E-03 -1.649999985E-03  9.874906111E-04  1.888845108E-03  3.532872631E+01  5.942599956E+02  7.129126095E-01 
        95  1.285714191E-03 -1.649999950E-03  9.878538017E-04  1.888836374E-03  3.524457532E+01  5.942599823E+02  7.129030840E-01 
        96  1.816924899E-03 -1.650000049E-03  9.877480907E-04  1.888838803E-03  3.526167372E+01  5.942600177E+02  7.129051999E-01 
        97  2.170191834E-03 -1.650000044E-03  9.876810309E-04  1.888840385E-03  3.527660231E+01  5.942600177E+02  7.129068640E-01 
        98  1.202946298E-02 -1.649999953E-03  9.876343321E-04  1.853389845E-03  3.820318998E+01  5.942599822E+02  7.155426658E-01 
        99  1.214308635E-02 -1.649999988E-03  9.878858045E-04  1.828408325E-03  3.833361285E+01  5.942600000E+02  7.152146620E-01 
       100 -3.542577826E-04 -1.650000007E-03  9.881497301E-04  1.888830505E-03  3.522634970E+01  5.942600000E+02  7.129009011E-01 
       101  2.031021205E-04 -1.649999952E-03  9.880507533E-04  1.888832278E-03  3.522590996E+01  5.942599823E+02  7.129009561E-01 
       102  4.512136878E-04 -1.649999952E-03  9.880065915E-04  1.888833126E-03  3.522677229E+01  5.942599823E+02  7.129008776E-01 
       103  5.803136392E-04 -1.649999997E-03  9.879823968E-04  1.888833691E-03  3.522880981E+01  5.942600000E+02  7.129014210E-01 
       104  1.223776813E-02 -1.650000009E-03  9.880956075E-04  2.139034709E-03  3.843721526E+01  5.942600008E+02  7.084679702E-01 
       105 -1.968786396E-03 -1.649999951E-03  9.883890366E-04  1.888826669E-03  3.526321734E+01  5.942599823E+02  7.129061489E-01 
       106 -1.652977683E-03 -1.649999996E-03  9.883474365E-04  1.888827287E-03  3.525207870E+01  5.942600000E+02  7.129047390E-01 
       107 -1.155706233E-03 -1.649999999E-03  9.882811823E-04  1.888828285E-03  3.523831738E+01  5.942600000E+02  7.129027210E-01 
       108 -7.328599352E-04 -1.649999953E-03  9.882105507E-04  1.888829391E-03  3.523079205E+01  5.942599823E+02  7.129015471E-01 
       109  1.231666688E-02 -1.649999993E-03  9.882706246E-04  6.550576965E-03  3.850385393E+01  5.942600059E+02  6.606429702E-01 
       110 -1.238224737E-02 -1.650000051E-03  9.884166253E-04  7.620920413E-03  3.851725849E+01  5.942600560E+02  0.000000000E+00 
       111 -1.231697450E-02 -1.649999999E-03  9.884940960E-04  6.624480913E-03  3.850511293E+01  5.942600057E+02  6.624153964E-01 
       112 -2.327584992E-03 -1.649999952E-03  9.884358288E-04  1.888826151E-03  3.528011436E+01  5.942599823E+02  7.129081896E-01 
       113  1.238241434E-02 -1.650000051E-03  9.884166253E-04  7.552511529E-03  3.851420836E+01  5.942600561E+02  0.000000000E+00 
       114 -1.223864467E-02 -1.650000051E-03  9.885870638E-04  2.150628986E-03  3.843616035E+01  5.942600185E+02  7.085053777E-01 
       115 -1.214464338E-02 -1.649999994E-03  9.886984689E-04  1.824767739E-03  3.833169276E+01  5.942600000E+02  7.150375771E-01 
       116 -4.517199587E-03 -1.649999963E-03  9.887236864E-04  1.888825250E-03  3.544091772E+01  5.942599867E+02  7.129291828E-01 
       117 -4.414670316E-03 -1.650000033E-03  9.887104562E-04  1.888825236E-03  3.543083301E+01  5.942600133E+02  7.129277139E-01 
       118 -3.651595001E-03 -1.650000048E-03  9.886098026E-04  1.888825127E-03  3.536478440E+01  5.942600177E+02  7.129185922E-01 
       119 -3.094823677E-03 -1.650000049E-03  9.885372614E-04  1.888825365E-03  3.532374124E+01  5.942600177E+02  7.129134277E-01 
       120 -2.793029229E-03 -1.649999951E-03  9.884973581E-04  1.888825538E-03  3.530470503E+01  5.942599823E+02  7.129111212E-01 
       121 -1.203183536E-02 -1.650000008E-03  9.888320552E-04  1.850611332E-03  3.820124790E+01  5.942599999E+02  7.153769055E-01 
       122 -5.373331867E-03 -1.650000002E-03  9.888373881E-04  1.888827110E-03  3.554198562E+01  5.942600000E+02  7.129454073E-01 
       123 -4.706021831E-03 -1.649999978E-03  9.887486688E-04  1.888825657E-03  3.546251317E+01  5.942599911E+02  7.129327015E-01 
       124 -1.189645587E-02 -1.650000052E-03  9.889921867E-04  1.868211726E-03  3.804793563E+01  5.942600176E+02  7.151948608E-01 
       125 -5.769750150E-03 -1.650000058E-03  9.888914969E-04  1.888828813E-03  3.559742878E+01  5.942600177E+02  7.129555591E-01 
       126 -7.038392819E-03 -1.649999978E-03  9.890637268E-04  1.888838704E-03  3.581215162E+01  5.942599911E+02  7.130027018E-01 
       127 -6.777981764E-03 -1.650000004E-03  9.890279205E-04  1.888836378E-03  3.576474753E+01  5.942600000E+02  7.129919498E-01 
       128 -6.208507374E-03 -1.649999986E-03  9.889500532E-04  1.888831184E-03  3.566379485E+01  5.942600000E+02  7.129683885E-01 
       129 -1.173398426E-02 -1.649999973E-03  9.891839625E-04  1.877719290E-03  3.788080186E+01  5.942599911E+02  7.149340897E-01 
       130 -7.317166953E-03 -1.650000004E-03  9.891033433E-04  1.888843541E-03  3.587344369E+01  5.942600000E+02  7.130204224E-01 
       131 -8.713682192E-03 -1.650000053E-03  9.893002256E-04  1.888885550E-03  3.623942069E+01  5.942600177E+02  7.131529402E-01 
       132 -8.332633425E-03 -1.649999946E-03  9.892454469E-04  1.888871293E-03  3.612992404E+01  5.942599823E+02  7.131099471E-01 
       133 -7.874710432E-03 -1.649999955E-03  9.891805000E-04  1.888854452E-03  3.600304916E+01  5.942599823E+02  7.130591902E-01 
       134 -1.153899587E-02 -1.649999945E-03  9.894136741E-04  1.883130159E-03  3.770301432E+01  5.942599822E+02  7.146521040E-01 
       135 -9.733691370E-03 -1.650000000E-03  9.894490791E-04  1.888897344E-03  3.662881684E+01  5.942600000E+02  7.134039303E-01 
       136 -9.556210586E-03 -1.650000046E-03  9.894235574E-04  1.888932691E-03  3.654429498E+01  5.942600177E+02  7.133287172E-01 
       137 -9.266405885E-03 -1.650000050E-03  9.893819229E-04  1.888916069E-03  3.643726299E+01  5.942600177E+02  7.132665310E-01 
       138 -1.041736222E-02 -1.649999955E-03  9.895527119E-04  1.888769924E-03  3.696110442E+01  5.942599823E+02  7.136950221E-01 
       139 -1.130497527E-02 -1.649999952E-03  9.896886455E-04  1.886168029E-03  3.751427956E+01  5.942599822E+02  7.143672999E-01 
       140 -1.104863784E-02 -1.650000007E-03  9.896471749E-04  1.886925153E-03  3.735183092E+01  5.942599999E+02  7.141703378E-01 
       141  1.110265300E-02 -1.649999997E-03  1.972140752E-03  1.873478036E-03  3.668623033E+01  5.942600000E+02  7.155816496E-01 
       142  1.129766783E-02 -1.649999997E-03  1.972047450E-03  1.872174493E-03  3.674419061E+01  5.942600000E+02  7.158499343E-01 
       143  1.038834619E-02 -1.649999990E-03  1.972439484E-03  1.878080366E-03  3.647738827E+01  5.942600000E+02  7.146360867E-01 
       144  9.996815845E-03 -1.649999998E-03  1.972603110E-03  1.878305865E-03  3.636552988E+01  5.942600000E+02  7.143262779E-01 
       145  9.485811853E-03 -1.649999993E-03  1.972800993E-03  1.878581172E-03  3.622343650E+01  5.942600000E+02  7.139344427E-01 
       146  8.598398070E-03 -1.649999998E-03  1.973137196E-03  1.878509346E-03  3.599897804E+01  5.942600000E+02  7.135679326E-01 
       147  8.805409659E-03 -1.650000022E-03  1.973060752E-03  1.878525111E-03  3.604977547E+01  5.942600088E+02  7.136513868E-01 
       148  1.153328860E-02 -1.649999970E-03  1.973080771E-03  1.865869136E-03  3.680536568E+01  5.942599911E+02  7.163203870E-01 
       149  8.091608969E-03 -1.650000003E-03  1.973322042E-03  1.878474956E-03  3.588938791E+01  5.942600000E+02  7.134501733E-01 
       150  7.572601876E-03 -1.650000025E-03  1.973515861E-03  1.878444769E-03  3.578437710E+01  5.942600088E+02  7.133462668E-01 
       151  7.730469083E-03 -1.650000002E-03  1.973458047E-03  1.878451009E-03  3.581307386E+01  5.942600000E+02  7.133683413E-01 
