nodenumber     x-coordinate     y-coordinate     z-coordinate turb-kinetic-energy         pressure      temperature velocity-magnitude 
         1 -1.238224696E-02 -1.650000007E-03  0.000000000E+00  4.871627118E-03  4.629345516E+01  5.942600194E+02  0.000000000E+00 
         2 -1.231646687E-02 -1.649999949E-03  0.000000000E+00  2.376182494E-03  4.622083767E+01  5.942599823E+02  7.960205061E-01 
         3 -1.223752875E-02 -1.650000008E-03  0.000000000E+00  2.376182565E-03  4.603859315E+01  5.942600000E+02  7.960205298E-01 
         4 -1.214279805E-02 -1.649999951E-03  0.000000000E+00  2.376182494E-03  4.580194176E+01  5.942599823E+02  7.960205061E-01 
         5 -1.202911553E-02 -1.649999951E-03  0.000000000E+00  2.376182494E-03  4.552838420E+01  5.942599823E+02  7.960205061E-01 
         6 -1.189268779E-02 -1.650000001E-03  0.000000000E+00  2.376182565E-03  4.522645251E+01  5.942600000E+02  7.960205298E-01 
         7 -1.172896070E-02 -1.650000028E-03  0.000000000E+00  2.376182600E-03  4.490854178E+01  5.942600089E+02  7.960205417E-01 
         8 -1.153246726E-02 -1.649999968E-03  0.000000000E+00  2.376182529E-03  4.457774409E+01  5.942599911E+02  7.960205180E-01 
         9 -1.129664480E-02 -1.649999999E-03  0.000000000E+00  2.376182565E-03  4.408051946E+01  5.942600000E+02  7.960205298E-01 
        10 -1.104180182E-02 -1.649999952E-03  0.000000000E+00  2.376182494E-03  4.387473077E+01  5.942599823E+02  7.960205061E-01 
        11 -1.040965475E-02 -1.650000037E-03  0.000000000E+00  2.376182635E-03  4.337611061E+01  5.942600177E+02  7.960205536E-01 
        12 -9.727797567E-03 -1.649999974E-03  0.000000000E+00  2.376182529E-03  4.288213092E+01  5.942599911E+02  7.960205180E-01 
        13 -9.549135039E-03 -1.650000016E-03  0.000000000E+00  2.376182600E-03  4.275437457E+01  5.942600089E+02  7.960205417E-01 
        14 -9.257402967E-03 -1.649999996E-03  0.000000000E+00  2.376182565E-03  4.260552174E+01  5.942600000E+02  7.960205298E-01 
        15 -8.707201624E-03 -1.650000004E-03  0.000000000E+00  2.376182565E-03  4.233195431E+01  5.942600000E+02  7.960205298E-01 
        16 -8.327874969E-03 -1.650000002E-03  0.000000000E+00  2.376182565E-03  4.218452594E+01  5.942600000E+02  7.960205298E-01 
        17 -7.868819436E-03 -1.650000009E-03  0.000000000E+00  2.376182565E-03  4.201143331E+01  5.942600000E+02  7.960205298E-01 
        18 -7.309914944E-03 -1.650000005E-03  0.000000000E+00  2.376182565E-03  4.184126599E+01  5.942600000E+02  7.960205298E-01 
        19 -7.033056079E-03 -1.649999952E-03  0.000000000E+00  2.376182494E-03  4.176200963E+01  5.942599823E+02  7.960205061E-01 
        20 -6.774404682E-03 -1.650000049E-03  0.000000000E+00  2.376182635E-03  4.170257189E+01  5.942600177E+02  7.960205536E-01 
        21 -6.203718579E-03 -1.649999993E-03  0.000000000E+00  2.376182565E-03  4.157606806E+01  5.942600000E+02  7.960205298E-01 
        22 -5.764059055E-03 -1.650000057E-03  0.000000000E+00  2.376182635E-03  4.149166894E+01  5.942600177E+02  7.960205536E-01 
        23 -5.369046210E-03 -1.650000008E-03  0.000000000E+00  2.376182565E-03  4.142243190E+01  5.942600000E+02  7.960205298E-01 
        24 -4.703991919E-03 -1.649999998E-03  0.000000000E+00  2.376182565E-03  4.132386857E+01  5.942600000E+02  7.960205298E-01 
        25 -4.513416810E-03 -1.649999963E-03  0.000000000E+00  2.376182512E-03  4.129666536E+01  5.942599867E+02  7.960205120E-01 
        26 -4.409949101E-03 -1.650000002E-03  0.000000000E+00  2.376182565E-03  4.128412923E+01  5.942600000E+02  7.960205298E-01 
        27 -3.648226494E-03 -1.649999989E-03  0.000000000E+00  2.376182565E-03  4.120299891E+01  5.942600000E+02  7.960205298E-01 
        28 -3.090814824E-03 -1.649999990E-03  0.000000000E+00  2.376182565E-03  4.115201411E+01  5.942600000E+02  7.960205298E-01 
        29 -2.790049428E-03 -1.649999975E-03  0.000000000E+00  2.376182529E-03  4.112878986E+01  5.942599911E+02  7.960205180E-01 
        30 -2.326109559E-03 -1.650000046E-03  0.000000000E+00  2.376182635E-03  4.109942949E+01  5.942600177E+02  7.960205536E-01 
        31 -1.966101120E-03 -1.650000005E-03  0.000000000E+00  2.376182565E-03  4.107913061E+01  5.942600000E+02  7.960205298E-01 
        32 -1.649288649E-03 -1.650000004E-03  0.000000000E+00  2.376182565E-03  4.106615754E+01  5.942600000E+02  7.960205298E-01 
        33 -1.153324779E-03 -1.650000049E-03  0.000000000E+00  2.376182635E-03  4.105074668E+01  5.942600177E+02  7.960205536E-01 
        34 -7.314993435E-04 -1.649999992E-03  0.000000000E+00  2.376182565E-03  4.104219055E+01  5.942600000E+02  7.960205298E-01 
        35 -3.521276869E-04 -1.650000043E-03  0.000000000E+00  2.376182635E-03  4.103747304E+01  5.942600177E+02  7.960205536E-01 
        36  2.062356178E-04 -1.650000004E-03  0.000000000E+00  2.376182565E-03  4.103749357E+01  5.942600000E+02  7.960205298E-01 
        37  4.531226353E-04 -1.649999970E-03  0.000000000E+00  2.376182529E-03  4.103893280E+01  5.942599911E+02  7.960205180E-01 
        38  5.816147412E-04 -1.650000031E-03  0.000000000E+00  2.376182600E-03  4.104155383E+01  5.942600089E+02  7.960205417E-01 
        39  1.287381078E-03 -1.649999940E-03  0.000000000E+00  2.376182494E-03  4.106238866E+01  5.942599823E+02  7.960205061E-01 
        40  1.817906072E-03 -1.650000045E-03  0.000000000E+00  2.376182635E-03  4.108413377E+01  5.942600177E+02  7.960205536E-01 
        41  2.171618469E-03 -1.649999958E-03  0.000000000E+00  2.376182494E-03  4.110300811E+01  5.942599823E+02  7.960205061E-01 
        42  2.917015337E-03 -1.650000026E-03  0.000000000E+00  2.376182600E-03  4.115333601E+01  5.942600089E+02  7.960205417E-01 
        43  3.060138752E-03 -1.649999982E-03  0.000000000E+00  2.376182538E-03  4.116365953E+01  5.942599934E+02  7.960205209E-01 
        44  3.122627803E-03 -1.650000012E-03  0.000000000E+00  2.376182582E-03  4.116907740E+01  5.942600044E+02  7.960205358E-01 
        45  3.948750735E-03 -1.649999946E-03  0.000000000E+00  2.376182494E-03  4.125159066E+01  5.942599823E+02  7.960205061E-01 
        46  4.233552192E-03 -1.650000005E-03  0.000000000E+00  2.376182565E-03  4.128222610E+01  5.942600000E+02  7.960205298E-01 
        47  4.833507872E-03 -1.649999945E-03  0.000000000E+00  2.376182494E-03  4.136112087E+01  5.942599823E+02  7.960205061E-01 
        48  5.160210487E-03 -1.649999946E-03  0.000000000E+00  2.376182494E-03  4.140972841E+01  5.942599823E+02  7.960205061E-01 
        49  5.783248106E-03 -1.650000052E-03  0.000000000E+00  2.376182635E-03  4.151961146E+01  5.942600177E+02  7.960205536E-01 
        50  6.035984549E-03 -1.649999976E-03  0.000000000E+00  2.376182529E-03  4.156674989E+01  5.942599911E+02  7.960205180E-01 
        51  6.237400109E-03 -1.650000022E-03  0.000000000E+00  2.376182600E-03  4.160977450E+01  5.942600089E+02  7.960205417E-01 
        52  6.881112835E-03 -1.650000056E-03  0.000000000E+00  2.376182635E-03  4.175371423E+01  5.942600177E+02  7.960205536E-01 
        53  7.573470319E-03 -1.649999997E-03  0.000000000E+00  2.376182565E-03  4.194470503E+01  5.942600000E+02  7.960205298E-01 
        54  7.730792309E-03 -1.650000003E-03  0.000000000E+00  2.376182565E-03  4.198960795E+01  5.942600000E+02  7.960205298E-01 
        55  8.090815089E-03 -1.650000001E-03  0.000000000E+00  2.376182565E-03  4.212047338E+01  5.942600000E+02  7.960205298E-01 
        56  8.598449542E-03 -1.650000003E-03  0.000000000E+00  2.376182565E-03  4.230947835E+01  5.942600000E+02  7.960205298E-01 
        57  8.805739513E-03 -1.650000003E-03  0.000000000E+00  2.376182565E-03  4.241056483E+01  5.942600000E+02  7.960205298E-01 
        58  9.485623847E-03 -1.649999997E-03  0.000000000E+00  2.376182565E-03  4.275486964E+01  5.942600000E+02  7.960205298E-01 
        59  9.996717122E-03 -1.650000053E-03  0.000000000E+00  2.376182635E-03  4.311471488E+01  5.942600177E+02  7.960205536E-01 
        60  1.038796781E-02 -1.650000000E-03  0.000000000E+00  2.376182565E-03  4.340241694E+01  5.942600000E+02  7.960205298E-01 
        61  1.110225324E-02 -1.650000050E-03  0.000000000E+00  2.376182635E-03  4.397275642E+01  5.942600177E+02  7.960205536E-01 
        62  1.129715473E-02 -1.650000051E-03  0.000000000E+00  2.376182635E-03  4.413166110E+01  5.942600177E+02  7.960205536E-01 
        63  1.153289457E-02 -1.649999949E-03  0.000000000E+00  2.376182494E-03  4.464041265E+01  5.942599823E+02  7.960205061E-01 
        64  1.172932302E-02 -1.649999996E-03  0.000000000E+00  2.376182565E-03  4.498177008E+01  5.942600000E+02  7.960205298E-01 
        65  1.189299876E-02 -1.650000052E-03  0.000000000E+00  2.376182635E-03  4.531147316E+01  5.942600177E+02  7.960205536E-01 
        66  1.202938442E-02 -1.649999949E-03  0.000000000E+00  2.376182494E-03  4.562641513E+01  5.942599823E+02  7.960205061E-01 
        67  1.214303390E-02 -1.650000044E-03  0.000000000E+00  2.376182635E-03  4.591280902E+01  5.942600177E+02  7.960205536E-01 
        68  1.223773642E-02 -1.650000012E-03  0.000000000E+00  2.376182565E-03  4.616129018E+01  5.942600000E+02  7.960205298E-01 
        69  1.231665286E-02 -1.650000046E-03  0.000000000E+00  2.376182635E-03  4.635264818E+01  5.942600177E+02  7.960205536E-01 
        70  1.238241385E-02 -1.649999998E-03  0.000000000E+00  4.841264061E-03  4.642842985E+01  5.942600194E+02  0.000000000E+00 
        71  1.110245300E-02 -1.649999996E-03  9.860657205E-04  2.353334350E-03  4.362829245E+01  5.942599999E+02  7.975786811E-01 
        72  1.129741118E-02 -1.649999994E-03  9.860237298E-04  2.352700495E-03  4.377766383E+01  5.942599999E+02  7.977515049E-01 
        73  1.038815708E-02 -1.649999987E-03  9.861987235E-04  2.355569913E-03  4.309731969E+01  5.942600000E+02  7.969719211E-01 
        74  8.805574705E-03 -1.650000021E-03  9.864727040E-04  2.355633317E-03  4.228523360E+01  5.942600088E+02  7.964076476E-01 
        75  9.485717905E-03 -1.650000014E-03  9.863583903E-04  2.355688818E-03  4.258169719E+01  5.942600000E+02  7.965573690E-01 
        76  9.996766092E-03 -1.649999943E-03  9.862710097E-04  2.355623608E-03  4.287019005E+01  5.942599823E+02  7.967886556E-01 
        77  7.730630904E-03 -1.650000039E-03  9.866502961E-04  2.355577119E-03  4.191011794E+01  5.942600133E+02  7.962644445E-01 
        78  8.091212126E-03 -1.649999999E-03  9.865892570E-04  2.355593552E-03  4.202820625E+01  5.942600000E+02  7.963049464E-01 
        79  8.598423723E-03 -1.649999983E-03  9.865066297E-04  2.355617254E-03  4.219823184E+01  5.942599911E+02  7.963633580E-01 
        80  1.153309208E-02 -1.650000032E-03  9.865404178E-04  2.349220128E-03  4.400280701E+01  5.942600088E+02  7.980841716E-01 
        81  7.573036225E-03 -1.650000030E-03  9.866765862E-04  2.355572996E-03  4.186831119E+01  5.942600088E+02  7.962539261E-01 
        82  5.783215100E-03 -1.650000004E-03  9.869826635E-04  2.355538575E-03  4.147031995E+01  5.942600000E+02  7.961667096E-01 
        83  6.035506259E-03 -1.649999949E-03  9.869375075E-04  2.355541541E-03  4.151315926E+01  5.942599823E+02  7.961734639E-01 
        84  6.236595952E-03 -1.650000002E-03  9.869024133E-04  2.355544930E-03  4.155429640E+01  5.942600000E+02  7.961817016E-01 
        85  6.880806203E-03 -1.649999944E-03  9.867931445E-04  2.355555351E-03  4.169049714E+01  5.942599823E+02  7.962083237E-01 
        86  1.172947215E-02 -1.650000029E-03  9.869723181E-04  2.343001373E-03  4.421560953E+01  5.942600088E+02  7.984163611E-01 
        87  4.832561986E-03 -1.649999941E-03  9.871570102E-04  2.355528573E-03  4.132147619E+01  5.942599823E+02  7.961443825E-01 
        88  5.159606270E-03 -1.650000004E-03  9.870976822E-04  2.355531550E-03  4.136869094E+01  5.942600000E+02  7.961509338E-01 
        89  3.947734035E-03 -1.649999955E-03  9.873277149E-04  2.355521323E-03  4.121348268E+01  5.942599823E+02  7.961303414E-01 
        90  4.232942892E-03 -1.649999946E-03  9.872707921E-04  2.355523487E-03  4.124396773E+01  5.942599823E+02  7.961338999E-01 
        91  1.189310817E-02 -1.649999954E-03  9.873330752E-04  2.332148415E-03  4.441652637E+01  5.942599822E+02  7.987263783E-01 
        92  2.914795121E-03 -1.649999999E-03  9.875323253E-04  2.355514260E-03  4.111997655E+01  5.942600000E+02  7.961198644E-01 
        93  3.058937451E-03 -1.650000039E-03  9.875036176E-04  2.355515198E-03  4.113001932E+01  5.942600133E+02  7.961208678E-01 
        94  3.121859929E-03 -1.649999985E-03  9.874906111E-04  2.355515549E-03  4.113515489E+01  5.942599956E+02  7.961213825E-01 
        95  1.285714191E-03 -1.649999950E-03  9.878538017E-04  2.355504827E-03  4.103186659E+01  5.942599823E+02  7.961109983E-01 
        96  1.816924899E-03 -1.650000049E-03  9.877480907E-04  2.355507829E-03  4.105310891E+01  5.942600177E+02  7.961132966E-01 
        97  2.170191834E-03 -1.650000044E-03  9.876810309E-04  2.355509774E-03  4.107148133E+01  5.942600177E+02  7.961151170E-01 
        98  1.202946298E-02 -1.649999953E-03  9.876343321E-04  2.312310971E-03  4.460130214E+01  5.942599822E+02  7.989530212E-01 
        99  1.214308635E-02 -1.649999988E-03  9.878858045E-04  2.280857931E-03  4.475867393E+01  5.942600000E+02  7.986179094E-01 
       100 -3.542577826E-04 -1.650000007E-03  9.881497301E-04  2.355497510E-03  4.100741361E+01  5.942600000E+02  7.961086337E-01 
       101  2.031021205E-04 -1.649999952E-03  9.880507533E-04  2.355499737E-03  4.100782416E+01  5.942599823E+02  7.961086886E-01 
       102  4.512136878E-04 -1.649999952E-03  9.880065915E-04  2.355500798E-03  4.100926998E+01  5.942599823E+02  7.961086431E-01 
       103  5.803136392E-04 -1.649999997E-03  9.879823968E-04  2.355501502E-03  4.101191110E+01  5.942600000E+02  7.961091997E-01 
       104  1.223776813E-02 -1.650000009E-03  9.880956075E-04  2.626492593E-03  4.488398806E+01  5.942600010E+02  7.914402818E-01 
       105 -1.968786396E-03 -1.649999951E-03  9.883890366E-04  2.355492591E-03  4.104853607E+01  5.942599823E+02  7.961144175E-01 
       106 -1.652977683E-03 -1.649999996E-03  9.883474365E-04  2.355493397E-03  4.103581058E+01  5.942600000E+02  7.961128380E-01 
       107 -1.155706233E-03 -1.649999999E-03  9.882811823E-04  2.355494688E-03  4.102029111E+01  5.942600000E+02  7.961105383E-01 
       108 -7.328599352E-04 -1.649999953E-03  9.882105507E-04  2.355496099E-03  4.101205370E+01  5.942599823E+02  7.961093178E-01 
       109  1.231666688E-02 -1.649999993E-03  9.882706246E-04  7.907636468E-03  4.496454122E+01  5.942600071E+02  7.396850301E-01 
       110 -1.238224737E-02 -1.650000051E-03  9.884166253E-04  9.190067604E-03  4.495896141E+01  5.942600654E+02  0.000000000E+00 
       111 -1.231697450E-02 -1.649999999E-03  9.884940960E-04  7.995313820E-03  4.494432968E+01  5.942600068E+02  7.416386921E-01 
       112 -2.327584992E-03 -1.649999952E-03  9.884358288E-04  2.355491897E-03  4.106804776E+01  5.942599823E+02  7.961166943E-01 
       113  1.238241434E-02 -1.650000051E-03  9.884166253E-04  9.108895700E-03  4.497705001E+01  5.942600654E+02  0.000000000E+00 
       114 -1.223864467E-02 -1.650000051E-03  9.885870638E-04  2.639333069E-03  4.486102691E+01  5.942600187E+02  7.914792935E-01 
       115 -1.214464338E-02 -1.649999994E-03  9.886984689E-04  2.276167493E-03  4.473447685E+01  5.942600000E+02  7.984241226E-01 
       116 -4.517199587E-03 -1.649999963E-03  9.887236864E-04  2.355490305E-03  4.125614443E+01  5.942599867E+02  7.961399864E-01 
       117 -4.414670316E-03 -1.650000033E-03  9.887104562E-04  2.355490319E-03  4.124426401E+01  5.942600133E+02  7.961383628E-01 
       118 -3.651595001E-03 -1.650000048E-03  9.886098026E-04  2.355490376E-03  4.116671338E+01  5.942600177E+02  7.961282574E-01 
       119 -3.094823677E-03 -1.650000049E-03  9.885372614E-04  2.355490793E-03  4.111870589E+01  5.942600177E+02  7.961225313E-01 
       120 -2.793029229E-03 -1.649999951E-03  9.884973581E-04  2.355491063E-03  4.109654120E+01  5.942599823E+02  7.961199692E-01 
       121 -1.203183536E-02 -1.650000008E-03  9.888320552E-04  2.308964863E-03  4.457721955E+01  5.942599999E+02  7.987743871E-01 
       122 -5.373331867E-03 -1.650000002E-03  9.888373881E-04  2.355492297E-03  4.137562965E+01  5.942600000E+02  7.961579092E-01 
       123 -4.706021831E-03 -1.649999978E-03  9.887486688E-04  2.355490741E-03  4.128166854E+01  5.942599911E+02  7.961438739E-01 
       124 -1.189645587E-02 -1.650000052E-03  9.889921867E-04  2.330254798E-03  4.439252111E+01  5.942600176E+02  7.985764931E-01 
       125 -5.769750150E-03 -1.650000058E-03  9.888914969E-04  2.355494222E-03  4.144143072E+01  5.942600177E+02  7.961690982E-01 
       126 -7.038392819E-03 -1.649999978E-03  9.890637268E-04  2.355505641E-03  4.169732507E+01  5.942599911E+02  7.962207632E-01 
       127 -6.777981764E-03 -1.650000004E-03  9.890279205E-04  2.355502946E-03  4.164076909E+01  5.942600000E+02  7.962089896E-01 
       128 -6.208507374E-03 -1.649999986E-03  9.889500532E-04  2.355496919E-03  4.152031688E+01  5.942600000E+02  7.961832047E-01 
       129 -1.173398426E-02 -1.649999973E-03  9.891839625E-04  2.341828248E-03  4.419140718E+01  5.942599911E+02  7.982953046E-01 
       130 -7.317166953E-03 -1.650000004E-03  9.891033433E-04  2.355511300E-03  4.177075068E+01  5.942600000E+02  7.962400347E-01 
       131 -8.713682192E-03 -1.650000053E-03  9.893002256E-04  2.355560272E-03  4.221041473E+01  5.942600177E+02  7.963833434E-01 
       132 -8.332633425E-03 -1.649999946E-03  9.892454469E-04  2.355543659E-03  4.207870873E+01  5.942599823E+02  7.963369292E-01 
       133 -7.874710432E-03 -1.649999955E-03  9.891805000E-04  2.355524061E-03  4.192611071E+01  5.942599823E+02  7.962821450E-01 
       134 -1.153899587E-02 -1.649999945E-03  9.894136741E-04  2.348448072E-03  4.397731979E+01  5.942599822E+02  7.979916885E-01 
       135 -9.733691370E-03 -1.650000000E-03  9.894490791E-04  2.355566486E-03  4.268027516E+01  5.942600000E+02  7.966526653E-01 
       136 -9.556210586E-03 -1.650000046E-03  9.894235574E-04  2.355612927E-03  4.257817701E+01  5.942600177E+02  7.965720801E-01 
       137 -9.266405885E-03 -1.650000050E-03  9.893819229E-04  2.355594381E-03  4.244905985E+01  5.942600177E+02  7.965053128E-01 
       138 -1.041736222E-02 -1.649999955E-03  9.895527119E-04  2.355398296E-03  4.308170058E+01  5.942599822E+02  7.969645366E-01 
       139 -1.130497527E-02 -1.649999952E-03  9.896886455E-04  2.352177248E-03  4.374975626E+01  5.942599822E+02  7.976855398E-01 
       140 -1.104863784E-02 -1.650000007E-03  9.896471749E-04  2.353114571E-03  4.355356142E+01  5.942599999E+02  7.974743099E-01 
       141  1.110265300E-02 -1.649999997E-03  1.972140752E-03  2.336364894E-03  4.277567288E+01  5.942600000E+02  7.989968510E-01 
       142  1.129766783E-02 -1.649999997E-03  1.972047450E-03  2.334754418E-03  4.284584758E+01  5.942600000E+02  7.992855062E-01 
       143  1.038834619E-02 -1.649999990E-03  1.972439484E-03  2.342051652E-03  4.252280805E+01  5.942600000E+02  7.979795243E-01 
       144  9.996815845E-03 -1.649999998E-03  1.972603110E-03  2.342339254E-03  4.238759885E+01  5.942600000E+02  7.976460303E-01 
       145  9.485811853E-03 -1.649999993E-03  1.972800993E-03  2.342690574E-03  4.221582141E+01  5.942600000E+02  7.972242377E-01 
       146  8.598398070E-03 -1.649999998E-03  1.973137196E-03  2.342611576E-03  4.194486929E+01  5.942600000E+02  7.968292049E-01 
       147  8.805409659E-03 -1.650000022E-03  1.973060752E-03  2.342628860E-03  4.200619996E+01  5.942600088E+02  7.969191522E-01 
       148  1.153328860E-02 -1.649999970E-03  1.973080771E-03  2.327007513E-03  4.292003621E+01  5.942599911E+02  7.997913122E-01 
       149  8.091608969E-03 -1.650000003E-03  1.973322042E-03  2.342571440E-03  4.181270312E+01  5.942600000E+02  7.967020312E-01 
       150  7.572601876E-03 -1.650000025E-03  1.973515861E-03  2.342536116E-03  4.168607398E+01  5.942600088E+02  7.965897583E-01 
       151  7.730469083E-03 -1.650000002E-03  1.973458047E-03  2.342543477E-03  4.172065920E+01  5.942600000E+02  7.966136545E-01 
