nodenumber     x-coordinate     y-coordinate     z-coordinate turb-kinetic-energy         pressure      temperature velocity-magnitude 
         1 -1.238224696E-02 -1.650000007E-03  0.000000000E+00  4.361008099E-03  4.235333120E+01  5.942600171E+02  0.000000000E+00 
         2 -1.231646687E-02 -1.649999949E-03  0.000000000E+00  2.097174459E-03  4.228788969E+01  5.942599823E+02  7.478278583E-01 
         3 -1.223752875E-02 -1.650000008E-03  0.000000000E+00  2.097174521E-03  4.212386816E+01  5.942600000E+02  7.478278806E-01 
         4 -1.214279805E-02 -1.649999951E-03  0.000000000E+00  2.097174459E-03  4.191105324E+01  5.942599823E+02  7.478278583E-01 
         5 -1.202911553E-02 -1.649999951E-03  0.000000000E+00  2.097174459E-03  4.166481745E+01  5.942599823E+02  7.478278583E-01 
         6 -1.189268779E-02 -1.650000001E-03  0.000000000E+00  2.097174521E-03  4.139276816E+01  5.942600000E+02  7.478278806E-01 
         7 -1.172896070E-02 -1.650000028E-03  0.000000000E+00  2.097174552E-03  4.110627067E+01  5.942600089E+02  7.478278917E-01 
         8 -1.153246726E-02 -1.649999968E-03  0.000000000E+00  2.097174490E-03  4.080822672E+01  5.942599911E+02  7.478278694E-01 
         9 -1.129664480E-02 -1.649999999E-03  0.000000000E+00  2.097174521E-03  4.036045241E+01  5.942600000E+02  7.478278806E-01 
        10 -1.104180182E-02 -1.649999952E-03  0.000000000E+00  2.097174459E-03  4.017521137E+01  5.942599823E+02  7.478278583E-01 
        11 -1.040965475E-02 -1.650000037E-03  0.000000000E+00  2.097174584E-03  3.972636387E+01  5.942600177E+02  7.478279029E-01 
        12 -9.727797567E-03 -1.649999974E-03  0.000000000E+00  2.097174490E-03  3.928189612E+01  5.942599911E+02  7.478278694E-01 
        13 -9.549135039E-03 -1.650000016E-03  0.000000000E+00  2.097174552E-03  3.916693905E+01  5.942600089E+02  7.478278917E-01 
        14 -9.257402967E-03 -1.649999996E-03  0.000000000E+00  2.097174521E-03  3.903303001E+01  5.942600000E+02  7.478278806E-01 
        15 -8.707201624E-03 -1.650000004E-03  0.000000000E+00  2.097174521E-03  3.878692079E+01  5.942600000E+02  7.478278806E-01 
        16 -8.327874969E-03 -1.650000002E-03  0.000000000E+00  2.097174521E-03  3.865425289E+01  5.942600000E+02  7.478278806E-01 
        17 -7.868819436E-03 -1.650000009E-03  0.000000000E+00  2.097174521E-03  3.849847551E+01  5.942600000E+02  7.478278806E-01 
        18 -7.309914944E-03 -1.650000005E-03  0.000000000E+00  2.097174521E-03  3.834521297E+01  5.942600000E+02  7.478278806E-01 
        19 -7.033056079E-03 -1.649999952E-03  0.000000000E+00  2.097174459E-03  3.827381549E+01  5.942599823E+02  7.478278583E-01 
        20 -6.774404682E-03 -1.650000049E-03  0.000000000E+00  2.097174584E-03  3.822020014E+01  5.942600177E+02  7.478279029E-01 
        21 -6.203718579E-03 -1.649999993E-03  0.000000000E+00  2.097174521E-03  3.810608354E+01  5.942600000E+02  7.478278806E-01 
        22 -5.764059055E-03 -1.650000057E-03  0.000000000E+00  2.097174584E-03  3.802983345E+01  5.942600177E+02  7.478279029E-01 
        23 -5.369046210E-03 -1.650000008E-03  0.000000000E+00  2.097174521E-03  3.796723842E+01  5.942600000E+02  7.478278806E-01 
        24 -4.703991919E-03 -1.649999998E-03  0.000000000E+00  2.097174521E-03  3.787796526E+01  5.942600000E+02  7.478278806E-01 
        25 -4.513416810E-03 -1.649999963E-03  0.000000000E+00  2.097174474E-03  3.785332111E+01  5.942599867E+02  7.478278639E-01 
        26 -4.409949101E-03 -1.650000002E-03  0.000000000E+00  2.097174521E-03  3.784194407E+01  5.942600000E+02  7.478278806E-01 
        27 -3.648226494E-03 -1.649999989E-03  0.000000000E+00  2.097174521E-03  3.776818501E+01  5.942600000E+02  7.478278806E-01 
        28 -3.090814824E-03 -1.649999990E-03  0.000000000E+00  2.097174521E-03  3.772172826E+01  5.942600000E+02  7.478278806E-01 
        29 -2.790049428E-03 -1.649999975E-03  0.000000000E+00  2.097174490E-03  3.770050960E+01  5.942599911E+02  7.478278694E-01 
        30 -2.326109559E-03 -1.650000046E-03  0.000000000E+00  2.097174584E-03  3.767360198E+01  5.942600177E+02  7.478279029E-01 
        31 -1.966101120E-03 -1.650000005E-03  0.000000000E+00  2.097174521E-03  3.765495991E+01  5.942600000E+02  7.478278806E-01 
        32 -1.649288649E-03 -1.650000004E-03  0.000000000E+00  2.097174521E-03  3.764296282E+01  5.942600000E+02  7.478278806E-01 
        33 -1.153324779E-03 -1.650000049E-03  0.000000000E+00  2.097174584E-03  3.762859081E+01  5.942600177E+02  7.478279029E-01 
        34 -7.314993435E-04 -1.649999992E-03  0.000000000E+00  2.097174521E-03  3.762047274E+01  5.942600000E+02  7.478278806E-01 
        35 -3.521276869E-04 -1.650000043E-03  0.000000000E+00  2.097174584E-03  3.761585953E+01  5.942600177E+02  7.478279029E-01 
        36  2.062356178E-04 -1.650000004E-03  0.000000000E+00  2.097174521E-03  3.761536699E+01  5.942600000E+02  7.478278806E-01 
        37  4.531226353E-04 -1.649999970E-03  0.000000000E+00  2.097174490E-03  3.761644015E+01  5.942599911E+02  7.478278694E-01 
        38  5.816147412E-04 -1.650000031E-03  0.000000000E+00  2.097174552E-03  3.761868368E+01  5.942600089E+02  7.478278917E-01 
        39  1.287381078E-03 -1.649999940E-03  0.000000000E+00  2.097174459E-03  3.763681087E+01  5.942599823E+02  7.478278583E-01 
        40  1.817906072E-03 -1.650000045E-03  0.000000000E+00  2.097174584E-03  3.765591650E+01  5.942600177E+02  7.478279029E-01 
        41  2.171618469E-03 -1.649999958E-03  0.000000000E+00  2.097174459E-03  3.767260447E+01  5.942599823E+02  7.478278583E-01 
        42  2.917015337E-03 -1.650000026E-03  0.000000000E+00  2.097174552E-03  3.771728638E+01  5.942600089E+02  7.478278917E-01 
        43  3.060138752E-03 -1.649999982E-03  0.000000000E+00  2.097174498E-03  3.772646092E+01  5.942599934E+02  7.478278722E-01 
        44  3.122627803E-03 -1.650000012E-03  0.000000000E+00  2.097174537E-03  3.773128762E+01  5.942600044E+02  7.478278861E-01 
        45  3.948750735E-03 -1.649999946E-03  0.000000000E+00  2.097174459E-03  3.780491354E+01  5.942599823E+02  7.478278583E-01 
        46  4.233552192E-03 -1.650000005E-03  0.000000000E+00  2.097174521E-03  3.783227985E+01  5.942600000E+02  7.478278806E-01 
        47  4.833507872E-03 -1.649999945E-03  0.000000000E+00  2.097174459E-03  3.790285499E+01  5.942599823E+02  7.478278583E-01 
        48  5.160210487E-03 -1.649999946E-03  0.000000000E+00  2.097174459E-03  3.794636984E+01  5.942599823E+02  7.478278583E-01 
        49  5.783248106E-03 -1.650000052E-03  0.000000000E+00  2.097174584E-03  3.804479920E+01  5.942600177E+02  7.478279029E-01 
        50  6.035984549E-03 -1.649999976E-03  0.000000000E+00  2.097174490E-03  3.808703294E+01  5.942599911E+02  7.478278694E-01 
        51  6.237400109E-03 -1.650000022E-03  0.000000000E+00  2.097174552E-03  3.812561058E+01  5.942600089E+02  7.478278917E-01 
        52  6.881112835E-03 -1.650000056E-03  0.000000000E+00  2.097174584E-03  3.825469156E+01  5.942600177E+02  7.478279029E-01 
        53  7.573470319E-03 -1.649999997E-03  0.000000000E+00  2.097174521E-03  3.842606957E+01  5.942600000E+02  7.478278806E-01 
        54  7.730792309E-03 -1.650000003E-03  0.000000000E+00  2.097174521E-03  3.846636617E+01  5.942600000E+02  7.478278806E-01 
        55  8.090815089E-03 -1.650000001E-03  0.000000000E+00  2.097174521E-03  3.858387323E+01  5.942600000E+02  7.478278806E-01 
        56  8.598449542E-03 -1.650000003E-03  0.000000000E+00  2.097174521E-03  3.875359347E+01  5.942600000E+02  7.478278806E-01 
        57  8.805739513E-03 -1.650000003E-03  0.000000000E+00  2.097174521E-03  3.884442039E+01  5.942600000E+02  7.478278806E-01 
        58  9.485623847E-03 -1.649999997E-03  0.000000000E+00  2.097174521E-03  3.915380113E+01  5.942600000E+02  7.478278806E-01 
        59  9.996717122E-03 -1.650000053E-03  0.000000000E+00  2.097174584E-03  3.947735890E+01  5.942600177E+02  7.478279029E-01 
        60  1.038796781E-02 -1.650000000E-03  0.000000000E+00  2.097174521E-03  3.973606056E+01  5.942600000E+02  7.478278806E-01 
        61  1.110225324E-02 -1.650000050E-03  0.000000000E+00  2.097174584E-03  4.024917422E+01  5.942600177E+02  7.478279029E-01 
        62  1.129715473E-02 -1.650000051E-03  0.000000000E+00  2.097174584E-03  4.039213997E+01  5.942600177E+02  7.478279029E-01 
        63  1.153289457E-02 -1.649999949E-03  0.000000000E+00  2.097174459E-03  4.085005114E+01  5.942599823E+02  7.478278583E-01 
        64  1.172932302E-02 -1.649999996E-03  0.000000000E+00  2.097174521E-03  4.115743471E+01  5.942600000E+02  7.478278806E-01 
        65  1.189299876E-02 -1.650000052E-03  0.000000000E+00  2.097174584E-03  4.145439895E+01  5.942600177E+02  7.478279029E-01 
        66  1.202938442E-02 -1.649999949E-03  0.000000000E+00  2.097174459E-03  4.173801517E+01  5.942599823E+02  7.478278583E-01 
        67  1.214303390E-02 -1.650000044E-03  0.000000000E+00  2.097174584E-03  4.199565639E+01  5.942600177E+02  7.478279029E-01 
        68  1.223773642E-02 -1.650000012E-03  0.000000000E+00  2.097174521E-03  4.221893022E+01  5.942600000E+02  7.478278806E-01 
        69  1.231665286E-02 -1.650000046E-03  0.000000000E+00  2.097174584E-03  4.239098996E+01  5.942600177E+02  7.478279029E-01 
        70  1.238241385E-02 -1.649999998E-03  0.000000000E+00  4.333245927E-03  4.245923179E+01  5.942600171E+02  0.000000000E+00 
        71  1.110245300E-02 -1.649999996E-03  9.860657205E-04  2.077020121E-03  3.993876018E+01  5.942599999E+02  7.493221112E-01 
        72  1.129741118E-02 -1.649999994E-03  9.860237298E-04  2.076459189E-03  4.007309076E+01  5.942599999E+02  7.494878841E-01 
        73  1.038815708E-02 -1.649999987E-03  9.861987235E-04  2.078998172E-03  3.946126857E+01  5.942600000E+02  7.487400954E-01 
        74  8.805574705E-03 -1.650000021E-03  9.864727040E-04  2.079044663E-03  3.873159689E+01  5.942600088E+02  7.481988497E-01 
        75  9.485717905E-03 -1.650000014E-03  9.863583903E-04  2.079096216E-03  3.899787647E+01  5.942600000E+02  7.483424496E-01 
        76  9.996766092E-03 -1.649999943E-03  9.862710097E-04  2.079042484E-03  3.925714019E+01  5.942599823E+02  7.485643059E-01 
        77  7.730630904E-03 -1.650000039E-03  9.866502961E-04  2.078992973E-03  3.839482989E+01  5.942600133E+02  7.480615387E-01 
        78  8.091212126E-03 -1.649999999E-03  9.865892570E-04  2.079008024E-03  3.850083020E+01  5.942600000E+02  7.481003692E-01 
        79  8.598423723E-03 -1.649999983E-03  9.865066297E-04  2.079029737E-03  3.865345964E+01  5.942599911E+02  7.481563705E-01 
        80  1.153309208E-02 -1.650000032E-03  9.865404178E-04  2.073362257E-03  4.027569125E+01  5.942600088E+02  7.498070333E-01 
        81  7.573036225E-03 -1.650000030E-03  9.866765862E-04  2.078989216E-03  3.835732020E+01  5.942600088E+02  7.480514620E-01 
        82  5.783215100E-03 -1.650000004E-03  9.869826635E-04  2.078957928E-03  3.800043215E+01  5.942600000E+02  7.479679439E-01 
        83  6.035506259E-03 -1.649999949E-03  9.869375075E-04  2.078960611E-03  3.803880750E+01  5.942599823E+02  7.479744044E-01 
        84  6.236595952E-03 -1.650000002E-03  9.869024133E-04  2.078963684E-03  3.807568473E+01  5.942600000E+02  7.479822904E-01 
        85  6.880806203E-03 -1.649999944E-03  9.867931445E-04  2.078973142E-03  3.819780266E+01  5.942599823E+02  7.480077741E-01 
        86  1.172947215E-02 -1.650000029E-03  9.869723181E-04  2.067817486E-03  4.046731163E+01  5.942600088E+02  7.501258413E-01 
        87  4.832561986E-03 -1.649999941E-03  9.871570102E-04  2.078948908E-03  3.786714752E+01  5.942599823E+02  7.479465969E-01 
        88  5.159606270E-03 -1.650000004E-03  9.870976822E-04  2.078951586E-03  3.790941111E+01  5.942600000E+02  7.479528568E-01 
        89  3.947734035E-03 -1.649999955E-03  9.873277149E-04  2.078942399E-03  3.777059424E+01  5.942599823E+02  7.479331853E-01 
        90  4.232942892E-03 -1.649999946E-03  9.872707921E-04  2.078944338E-03  3.779782245E+01  5.942599823E+02  7.479365819E-01 
        91  1.189310817E-02 -1.649999954E-03  9.873330752E-04  2.058113497E-03  4.064826362E+01  5.942599822E+02  7.504235110E-01 
        92  2.914795121E-03 -1.649999999E-03  9.875323253E-04  2.078936086E-03  3.768722038E+01  5.942600000E+02  7.479231874E-01 
        93  3.058937451E-03 -1.650000039E-03  9.875036176E-04  2.078936921E-03  3.769614423E+01  5.942600133E+02  7.479241448E-01 
        94  3.121859929E-03 -1.649999985E-03  9.874906111E-04  2.078937235E-03  3.770071806E+01  5.942599956E+02  7.479246358E-01 
        95  1.285714191E-03 -1.649999950E-03  9.878538017E-04  2.078927704E-03  3.760927061E+01  5.942599823E+02  7.479147226E-01 
        96  1.816924899E-03 -1.650000049E-03  9.877480907E-04  2.078930364E-03  3.762793332E+01  5.942600177E+02  7.479169197E-01 
        97  2.170191834E-03 -1.650000044E-03  9.876810309E-04  2.078932091E-03  3.764417284E+01  5.942600177E+02  7.479186548E-01 
        98  1.202946298E-02 -1.649999953E-03  9.876343321E-04  2.040309962E-03  4.081460135E+01  5.942599822E+02  7.506408085E-01 
        99  1.214308635E-02 -1.649999988E-03  9.878858045E-04  2.012662838E-03  4.095610315E+01  5.942600000E+02  7.503100473E-01 
       100 -3.542577826E-04 -1.650000007E-03  9.881497301E-04  2.078921249E-03  3.758876902E+01  5.942600000E+02  7.479124469E-01 
       101  2.031021205E-04 -1.649999952E-03  9.880507533E-04  2.078923207E-03  3.758861060E+01  5.942599823E+02  7.479125062E-01 
       102  4.512136878E-04 -1.649999952E-03  9.880065915E-04  2.078924141E-03  3.758967786E+01  5.942599823E+02  7.479124428E-01 
       103  5.803136392E-04 -1.649999997E-03  9.879823968E-04  2.078924762E-03  3.759193823E+01  5.942600000E+02  7.479129936E-01 
       104  1.223776813E-02 -1.650000009E-03  9.880956075E-04  2.338021030E-03  4.106862732E+01  5.942600009E+02  7.433807766E-01 
       105 -1.968786396E-03 -1.649999951E-03  9.883890366E-04  2.078916967E-03  3.762742359E+01  5.942599823E+02  7.479178989E-01 
       106 -1.652977683E-03 -1.649999996E-03  9.883474365E-04  2.078917663E-03  3.761564261E+01  5.942600000E+02  7.479164218E-01 
       107 -1.155706233E-03 -1.649999999E-03  9.882811823E-04  2.078918782E-03  3.760115831E+01  5.942600000E+02  7.479142980E-01 
       108 -7.328599352E-04 -1.649999953E-03  9.882105507E-04  2.078920014E-03  3.759332008E+01  5.942599823E+02  7.479131058E-01 
       109  1.231666688E-02 -1.649999993E-03  9.882706246E-04  7.108246375E-03  4.114098909E+01  5.942600064E+02  6.938867165E-01 
       110 -1.238224737E-02 -1.650000051E-03  9.884166253E-04  8.266057121E-03  4.115007005E+01  5.942600598E+02  0.000000000E+00 
       111 -1.231697450E-02 -1.649999999E-03  9.884940960E-04  7.187841008E-03  4.113690078E+01  5.942600061E+02  6.957359147E-01 
       112 -2.327584992E-03 -1.649999952E-03  9.884358288E-04  2.078916375E-03  3.764536356E+01  5.942599823E+02  7.479200363E-01 
       113  1.238241434E-02 -1.650000051E-03  9.884166253E-04  8.192375322E-03  4.115222995E+01  5.942600599E+02  0.000000000E+00 
       114 -1.223864467E-02 -1.650000051E-03  9.885870638E-04  2.350141207E-03  4.106204344E+01  5.942600186E+02  7.434186078E-01 
       115 -1.214464338E-02 -1.649999994E-03  9.886984689E-04  2.008591086E-03  4.094851451E+01  5.942600000E+02  7.501258222E-01 
       116 -4.517199587E-03 -1.649999963E-03  9.887236864E-04  2.078915171E-03  3.781693907E+01  5.942599867E+02  7.479420309E-01 
       117 -4.414670316E-03 -1.650000033E-03  9.887104562E-04  2.078915169E-03  3.780614690E+01  5.942600133E+02  7.479404919E-01 
       118 -3.651595001E-03 -1.650000048E-03  9.886098026E-04  2.078915136E-03  3.773557097E+01  5.942600177E+02  7.479309327E-01 
       119 -3.094823677E-03 -1.650000049E-03  9.885372614E-04  2.078915453E-03  3.769177892E+01  5.942600177E+02  7.479255238E-01 
       120 -2.793029229E-03 -1.649999951E-03  9.884973581E-04  2.078915668E-03  3.767150592E+01  5.942599823E+02  7.479231085E-01 
       121 -1.203183536E-02 -1.650000008E-03  9.888320552E-04  2.037298647E-03  4.080705623E+01  5.942599999E+02  7.504707419E-01 
       122 -5.373331867E-03 -1.650000002E-03  9.888373881E-04  2.078917075E-03  3.792525615E+01  5.942600000E+02  7.479590378E-01 
       123 -4.706021831E-03 -1.649999978E-03  9.887486688E-04  2.078915587E-03  3.784008174E+01  5.942599911E+02  7.479457198E-01 
       124 -1.189645587E-02 -1.650000052E-03  9.889921867E-04  2.056412446E-03  4.064080607E+01  5.942600176E+02  7.502811786E-01 
       125 -5.769750150E-03 -1.650000058E-03  9.888914969E-04  2.078918868E-03  3.798478623E+01  5.942600177E+02  7.479696784E-01 
       126 -7.038392819E-03 -1.649999978E-03  9.890637268E-04  2.078929409E-03  3.821584298E+01  5.942599911E+02  7.480189678E-01 
       127 -6.777981764E-03 -1.650000004E-03  9.890279205E-04  2.078926925E-03  3.816480512E+01  5.942600000E+02  7.480077297E-01 
       128 -6.208507374E-03 -1.649999986E-03  9.889500532E-04  2.078921373E-03  3.805610108E+01  5.942600000E+02  7.479831108E-01 
       129 -1.173398426E-02 -1.649999973E-03  9.891839625E-04  2.066765818E-03  4.045964732E+01  5.942599911E+02  7.500110870E-01 
       130 -7.317166953E-03 -1.650000004E-03  9.891033433E-04  2.078934605E-03  3.828199720E+01  5.942600000E+02  7.480374183E-01 
       131 -8.713682192E-03 -1.650000053E-03  9.893002256E-04  2.078979681E-03  3.867774290E+01  5.942600177E+02  7.481748596E-01 
       132 -8.332633425E-03 -1.649999946E-03  9.892454469E-04  2.078964385E-03  3.855924464E+01  5.942599823E+02  7.481303223E-01 
       133 -7.874710432E-03 -1.649999955E-03  9.891805000E-04  2.078946328E-03  3.842193630E+01  5.942599823E+02  7.480777508E-01 
       134 -1.153899587E-02 -1.649999945E-03  9.894136741E-04  2.072671020E-03  4.026684537E+01  5.942599822E+02  7.497195092E-01 
       135 -9.733691370E-03 -1.650000000E-03  9.894490791E-04  2.078989504E-03  3.910021452E+01  5.942600000E+02  7.484335488E-01 
       136 -9.556210586E-03 -1.650000046E-03  9.894235574E-04  2.079029327E-03  3.900841598E+01  5.942600177E+02  7.483561436E-01 
       137 -9.266405885E-03 -1.650000050E-03  9.893819229E-04  2.079011831E-03  3.889232319E+01  5.942600177E+02  7.482920129E-01 
       138 -1.041736222E-02 -1.649999955E-03  9.895527119E-04  2.078845646E-03  3.946112123E+01  5.942599823E+02  7.487331201E-01 
       139 -1.130497527E-02 -1.649999952E-03  9.896886455E-04  2.075991292E-03  4.006200791E+01  5.942599822E+02  7.494255301E-01 
       140 -1.104863784E-02 -1.650000007E-03  9.896471749E-04  2.076821895E-03  3.988554376E+01  5.942599999E+02  7.492226735E-01 
       141  1.110265300E-02 -1.649999997E-03  1.972140752E-03  2.062029262E-03  3.917050304E+01  5.942600000E+02  7.506822760E-01 
       142  1.129766783E-02 -1.649999997E-03  1.972047450E-03  2.060600487E-03  3.923341316E+01  5.942600000E+02  7.509592365E-01 
       143  1.038834619E-02 -1.649999990E-03  1.972439484E-03  2.067074041E-03  3.894382175E+01  5.942600000E+02  7.497061446E-01 
       144  9.996815845E-03 -1.649999998E-03  1.972603110E-03  2.067324623E-03  3.882255606E+01  5.942600000E+02  7.493861812E-01 
       145  9.485811853E-03 -1.649999993E-03  1.972800993E-03  2.067630626E-03  3.866850486E+01  5.942600000E+02  7.489815037E-01 
       146  8.598398070E-03 -1.649999998E-03  1.973137196E-03  2.067555541E-03  3.842545485E+01  5.942600000E+02  7.486026250E-01 
       147  8.805409659E-03 -1.650000022E-03  1.973060752E-03  2.067572002E-03  3.848046414E+01  5.942600088E+02  7.486888949E-01 
       148  1.153328860E-02 -1.649999970E-03  1.973080771E-03  2.053706040E-03  3.929988378E+01  5.942599911E+02  7.514447052E-01 
       149  8.091608969E-03 -1.650000003E-03  1.973322042E-03  2.067518719E-03  3.830690974E+01  5.942600000E+02  7.484807213E-01 
       150  7.572601876E-03 -1.650000025E-03  1.973515861E-03  2.067486366E-03  3.819334346E+01  5.942600088E+02  7.483731210E-01 
       151  7.730469083E-03 -1.650000002E-03  1.973458047E-03  2.067493073E-03  3.822435732E+01  5.942600000E+02  7.483960074E-01 
