nodenumber     x-coordinate     y-coordinate     z-coordinate turb-kinetic-energy         pressure      temperature velocity-magnitude 
         1 -1.238224696E-02 -1.650000007E-03  0.000000000E+00  4.378543706E-03  4.248682921E+01  5.942600172E+02  0.000000000E+00 
         2 -1.231646687E-02 -1.649999949E-03  0.000000000E+00  2.106698075E-03  4.242114071E+01  5.942599823E+02  7.495239399E-01 
         3 -1.223752875E-02 -1.650000008E-03  0.000000000E+00  2.106698138E-03  4.225649221E+01  5.942600000E+02  7.495239623E-01 
         4 -1.214279805E-02 -1.649999951E-03  0.000000000E+00  2.106698075E-03  4.204285770E+01  5.942599823E+02  7.495239399E-01 
         5 -1.202911553E-02 -1.649999951E-03  0.000000000E+00  2.106698075E-03  4.179568233E+01  5.942599823E+02  7.495239399E-01 
         6 -1.189268779E-02 -1.650000001E-03  0.000000000E+00  2.106698138E-03  4.152260510E+01  5.942600000E+02  7.495239623E-01 
         7 -1.172896070E-02 -1.650000028E-03  0.000000000E+00  2.106698169E-03  4.123502707E+01  5.942600089E+02  7.495239734E-01 
         8 -1.153246726E-02 -1.649999968E-03  0.000000000E+00  2.106698106E-03  4.093585696E+01  5.942599911E+02  7.495239511E-01 
         9 -1.129664480E-02 -1.649999999E-03  0.000000000E+00  2.106698138E-03  4.048638520E+01  5.942600000E+02  7.495239623E-01 
        10 -1.104180182E-02 -1.649999952E-03  0.000000000E+00  2.106698075E-03  4.030044222E+01  5.942599823E+02  7.495239399E-01 
        11 -1.040965475E-02 -1.650000037E-03  0.000000000E+00  2.106698200E-03  3.984989621E+01  5.942600177E+02  7.495239846E-01 
        12 -9.727797567E-03 -1.649999974E-03  0.000000000E+00  2.106698106E-03  3.940374887E+01  5.942599911E+02  7.495239511E-01 
        13 -9.549135039E-03 -1.650000016E-03  0.000000000E+00  2.106698169E-03  3.928835769E+01  5.942600089E+02  7.495239734E-01 
        14 -9.257402967E-03 -1.649999996E-03  0.000000000E+00  2.106698138E-03  3.915394569E+01  5.942600000E+02  7.495239623E-01 
        15 -8.707201624E-03 -1.650000004E-03  0.000000000E+00  2.106698138E-03  3.890691491E+01  5.942600000E+02  7.495239623E-01 
        16 -8.327874969E-03 -1.650000002E-03  0.000000000E+00  2.106698138E-03  3.877375485E+01  5.942600000E+02  7.495239623E-01 
        17 -7.868819436E-03 -1.650000009E-03  0.000000000E+00  2.106698138E-03  3.861740014E+01  5.942600000E+02  7.495239623E-01 
        18 -7.309914944E-03 -1.650000005E-03  0.000000000E+00  2.106698138E-03  3.846357587E+01  5.942600000E+02  7.495239623E-01 
        19 -7.033056079E-03 -1.649999952E-03  0.000000000E+00  2.106698075E-03  3.839191865E+01  5.942599823E+02  7.495239399E-01 
        20 -6.774404682E-03 -1.650000049E-03  0.000000000E+00  2.106698200E-03  3.833811115E+01  5.942600177E+02  7.495239846E-01 
        21 -6.203718579E-03 -1.649999993E-03  0.000000000E+00  2.106698138E-03  3.822358540E+01  5.942600000E+02  7.495239623E-01 
        22 -5.764059055E-03 -1.650000057E-03  0.000000000E+00  2.106698200E-03  3.814706575E+01  5.942600177E+02  7.495239846E-01 
        23 -5.369046210E-03 -1.650000008E-03  0.000000000E+00  2.106698138E-03  3.808425246E+01  5.942600000E+02  7.495239623E-01 
        24 -4.703991919E-03 -1.649999998E-03  0.000000000E+00  2.106698138E-03  3.799467291E+01  5.942600000E+02  7.495239623E-01 
        25 -4.513416810E-03 -1.649999963E-03  0.000000000E+00  2.106698090E-03  3.796994436E+01  5.942599867E+02  7.495239455E-01 
        26 -4.409949101E-03 -1.650000002E-03  0.000000000E+00  2.106698138E-03  3.795852886E+01  5.942600000E+02  7.495239623E-01 
        27 -3.648226494E-03 -1.649999989E-03  0.000000000E+00  2.106698138E-03  3.788452686E+01  5.942600000E+02  7.495239623E-01 
        28 -3.090814824E-03 -1.649999990E-03  0.000000000E+00  2.106698138E-03  3.783791985E+01  5.942600000E+02  7.495239623E-01 
        29 -2.790049428E-03 -1.649999975E-03  0.000000000E+00  2.106698106E-03  3.781663493E+01  5.942599911E+02  7.495239511E-01 
        30 -2.326109559E-03 -1.650000046E-03  0.000000000E+00  2.106698200E-03  3.778964558E+01  5.942600177E+02  7.495239846E-01 
        31 -1.966101120E-03 -1.650000005E-03  0.000000000E+00  2.106698138E-03  3.777094818E+01  5.942600000E+02  7.495239623E-01 
        32 -1.649288649E-03 -1.650000004E-03  0.000000000E+00  2.106698138E-03  3.775891806E+01  5.942600000E+02  7.495239623E-01 
        33 -1.153324779E-03 -1.650000049E-03  0.000000000E+00  2.106698200E-03  3.774451070E+01  5.942600177E+02  7.495239846E-01 
        34 -7.314993435E-04 -1.649999992E-03  0.000000000E+00  2.106698138E-03  3.773637697E+01  5.942600000E+02  7.495239623E-01 
        35 -3.521276869E-04 -1.650000043E-03  0.000000000E+00  2.106698200E-03  3.773175920E+01  5.942600177E+02  7.495239846E-01 
        36  2.062356178E-04 -1.650000004E-03  0.000000000E+00  2.106698138E-03  3.773128184E+01  5.942600000E+02  7.495239623E-01 
        37  4.531226353E-04 -1.649999970E-03  0.000000000E+00  2.106698106E-03  3.773236637E+01  5.942599911E+02  7.495239511E-01 
        38  5.816147412E-04 -1.650000031E-03  0.000000000E+00  2.106698169E-03  3.773462196E+01  5.942600089E+02  7.495239734E-01 
        39  1.287381078E-03 -1.649999940E-03  0.000000000E+00  2.106698075E-03  3.775283630E+01  5.942599823E+02  7.495239399E-01 
        40  1.817906072E-03 -1.650000045E-03  0.000000000E+00  2.106698200E-03  3.777202748E+01  5.942600177E+02  7.495239846E-01 
        41  2.171618469E-03 -1.649999958E-03  0.000000000E+00  2.106698075E-03  3.778878671E+01  5.942599823E+02  7.495239399E-01 
        42  2.917015337E-03 -1.650000026E-03  0.000000000E+00  2.106698169E-03  3.783365364E+01  5.942600089E+02  7.495239734E-01 
        43  3.060138752E-03 -1.649999982E-03  0.000000000E+00  2.106698114E-03  3.784286584E+01  5.942599934E+02  7.495239539E-01 
        44  3.122627803E-03 -1.650000012E-03  0.000000000E+00  2.106698153E-03  3.784771202E+01  5.942600044E+02  7.495239679E-01 
        45  3.948750735E-03 -1.649999946E-03  0.000000000E+00  2.106698075E-03  3.792163150E+01  5.942599823E+02  7.495239399E-01 
        46  4.233552192E-03 -1.650000005E-03  0.000000000E+00  2.106698138E-03  3.794910618E+01  5.942600000E+02  7.495239623E-01 
        47  4.833507872E-03 -1.649999945E-03  0.000000000E+00  2.106698075E-03  3.801995829E+01  5.942599823E+02  7.495239399E-01 
        48  5.160210487E-03 -1.649999946E-03  0.000000000E+00  2.106698075E-03  3.806364293E+01  5.942599823E+02  7.495239399E-01 
        49  5.783248106E-03 -1.650000052E-03  0.000000000E+00  2.106698200E-03  3.816245615E+01  5.942600177E+02  7.495239846E-01 
        50  6.035984549E-03 -1.649999976E-03  0.000000000E+00  2.106698106E-03  3.820485432E+01  5.942599911E+02  7.495239511E-01 
        51  6.237400109E-03 -1.650000022E-03  0.000000000E+00  2.106698169E-03  3.824358191E+01  5.942600089E+02  7.495239734E-01 
        52  6.881112835E-03 -1.650000056E-03  0.000000000E+00  2.106698200E-03  3.837316369E+01  5.942600177E+02  7.495239846E-01 
        53  7.573470319E-03 -1.649999997E-03  0.000000000E+00  2.106698138E-03  3.854520638E+01  5.942600000E+02  7.495239623E-01 
        54  7.730792309E-03 -1.650000003E-03  0.000000000E+00  2.106698138E-03  3.858565906E+01  5.942600000E+02  7.495239623E-01 
        55  8.090815089E-03 -1.650000001E-03  0.000000000E+00  2.106698138E-03  3.870362104E+01  5.942600000E+02  7.495239623E-01 
        56  8.598449542E-03 -1.650000003E-03  0.000000000E+00  2.106698138E-03  3.887399800E+01  5.942600000E+02  7.495239623E-01 
        57  8.805739513E-03 -1.650000003E-03  0.000000000E+00  2.106698138E-03  3.896517581E+01  5.942600000E+02  7.495239623E-01 
        58  9.485623847E-03 -1.649999997E-03  0.000000000E+00  2.106698138E-03  3.927575093E+01  5.942600000E+02  7.495239623E-01 
        59  9.996717122E-03 -1.650000053E-03  0.000000000E+00  2.106698200E-03  3.960055396E+01  5.942600177E+02  7.495239846E-01 
        60  1.038796781E-02 -1.650000000E-03  0.000000000E+00  2.106698138E-03  3.986025086E+01  5.942600000E+02  7.495239623E-01 
        61  1.110225324E-02 -1.650000050E-03  0.000000000E+00  2.106698200E-03  4.037533213E+01  5.942600177E+02  7.495239846E-01 
        62  1.129715473E-02 -1.650000051E-03  0.000000000E+00  2.106698200E-03  4.051884591E+01  5.942600177E+02  7.495239846E-01 
        63  1.153289457E-02 -1.649999949E-03  0.000000000E+00  2.106698075E-03  4.097850672E+01  5.942599823E+02  7.495239399E-01 
        64  1.172932302E-02 -1.649999996E-03  0.000000000E+00  2.106698138E-03  4.128706016E+01  5.942600000E+02  7.495239623E-01 
        65  1.189299876E-02 -1.650000052E-03  0.000000000E+00  2.106698200E-03  4.158515195E+01  5.942600177E+02  7.495239846E-01 
        66  1.202938442E-02 -1.649999949E-03  0.000000000E+00  2.106698075E-03  4.186984711E+01  5.942599823E+02  7.495239399E-01 
        67  1.214303390E-02 -1.650000044E-03  0.000000000E+00  2.106698200E-03  4.212847835E+01  5.942600177E+02  7.495239846E-01 
        68  1.223773642E-02 -1.650000012E-03  0.000000000E+00  2.106698138E-03  4.235261974E+01  5.942600000E+02  7.495239623E-01 
        69  1.231665286E-02 -1.650000046E-03  0.000000000E+00  2.106698200E-03  4.252534390E+01  5.942600177E+02  7.495239846E-01 
        70  1.238241385E-02 -1.649999998E-03  0.000000000E+00  4.350690493E-03  4.259384552E+01  5.942600172E+02  0.000000000E+00 
        71  1.110245300E-02 -1.649999996E-03  9.860657205E-04  2.086451803E-03  4.006374251E+01  5.942599999E+02  7.510204647E-01 
        72  1.129741118E-02 -1.649999994E-03  9.860237298E-04  2.085888381E-03  4.019858986E+01  5.942599999E+02  7.511864877E-01 
        73  1.038815708E-02 -1.649999987E-03  9.861987235E-04  2.088438652E-03  3.958441333E+01  5.942600000E+02  7.504375716E-01 
        74  8.805574705E-03 -1.650000021E-03  9.864727040E-04  2.088485703E-03  3.885192096E+01  5.942600088E+02  7.498955059E-01 
        75  9.485717905E-03 -1.650000014E-03  9.863583903E-04  2.088537395E-03  3.911923114E+01  5.942600000E+02  7.500393246E-01 
        76  9.996766092E-03 -1.649999943E-03  9.862710097E-04  2.088483279E-03  3.937949662E+01  5.942599823E+02  7.502615162E-01 
        77  7.730630904E-03 -1.650000039E-03  9.866502961E-04  2.088433856E-03  3.851384912E+01  5.942600133E+02  7.497579833E-01 
        78  8.091212126E-03 -1.649999999E-03  9.865892570E-04  2.088448954E-03  3.862026031E+01  5.942600000E+02  7.497968740E-01 
        79  8.598423723E-03 -1.649999983E-03  9.865066297E-04  2.088470737E-03  3.877348101E+01  5.942599911E+02  7.498529621E-01 
        80  1.153309208E-02 -1.650000032E-03  9.865404178E-04  2.082778322E-03  4.040196608E+01  5.942600088E+02  7.515061155E-01 
        81  7.573036225E-03 -1.650000030E-03  9.866765862E-04  2.088430086E-03  3.847619415E+01  5.942600088E+02  7.497478906E-01 
        82  5.783215100E-03 -1.650000004E-03  9.869826635E-04  2.088398690E-03  3.811792132E+01  5.942600000E+02  7.496642370E-01 
        83  6.035506259E-03 -1.649999949E-03  9.869375075E-04  2.088401382E-03  3.815644593E+01  5.942599823E+02  7.496707085E-01 
        84  6.236595952E-03 -1.650000002E-03  9.869024133E-04  2.088404466E-03  3.819346645E+01  5.942600000E+02  7.496786075E-01 
        85  6.880806203E-03 -1.649999944E-03  9.867931445E-04  2.088413957E-03  3.831605788E+01  5.942599823E+02  7.497041331E-01 
        86  1.172947215E-02 -1.650000029E-03  9.869723181E-04  2.077210462E-03  4.059431598E+01  5.942600088E+02  7.518253975E-01 
        87  4.832561986E-03 -1.649999941E-03  9.871570102E-04  2.088389636E-03  3.798411743E+01  5.942599823E+02  7.496428533E-01 
        88  5.159606270E-03 -1.650000004E-03  9.870976822E-04  2.088392324E-03  3.802654565E+01  5.942600000E+02  7.496491241E-01 
        89  3.947734035E-03 -1.649999955E-03  9.873277149E-04  2.088383102E-03  3.788718483E+01  5.942599823E+02  7.496294177E-01 
        90  4.232942892E-03 -1.649999946E-03  9.872707921E-04  2.088385048E-03  3.791452069E+01  5.942599823E+02  7.496328206E-01 
        91  1.189310817E-02 -1.649999954E-03  9.873330752E-04  2.067467074E-03  4.077595586E+01  5.942599822E+02  7.521235054E-01 
        92  2.914795121E-03 -1.649999999E-03  9.875323253E-04  2.088376764E-03  3.780347763E+01  5.942600000E+02  7.496194012E-01 
        93  3.058937451E-03 -1.650000039E-03  9.875036176E-04  2.088377602E-03  3.781243805E+01  5.942600133E+02  7.496203604E-01 
        94  3.121859929E-03 -1.649999985E-03  9.874906111E-04  2.088377917E-03  3.781703032E+01  5.942599956E+02  7.496208524E-01 
        95  1.285714191E-03 -1.649999950E-03  9.878538017E-04  2.088368346E-03  3.772519725E+01  5.942599823E+02  7.496109204E-01 
        96  1.816924899E-03 -1.650000049E-03  9.877480907E-04  2.088371017E-03  3.774394332E+01  5.942600177E+02  7.496131216E-01 
        97  2.170191834E-03 -1.650000044E-03  9.876810309E-04  2.088372752E-03  3.776025212E+01  5.942600177E+02  7.496148601E-01 
        98  1.202946298E-02 -1.649999953E-03  9.876343321E-04  2.049593686E-03  4.094292894E+01  5.942599822E+02  7.523411372E-01 
        99  1.214308635E-02 -1.649999988E-03  9.878858045E-04  2.021815314E-03  4.108497728E+01  5.942600000E+02  7.520102337E-01 
       100 -3.542577826E-04 -1.650000007E-03  9.881497301E-04  2.088361861E-03  3.770457102E+01  5.942600000E+02  7.496086401E-01 
       101  2.031021205E-04 -1.649999952E-03  9.880507533E-04  2.088363828E-03  3.770442946E+01  5.942599823E+02  7.496086997E-01 
       102  4.512136878E-04 -1.649999952E-03  9.880065915E-04  2.088364767E-03  3.770550837E+01  5.942599823E+02  7.496086371E-01 
       103  5.803136392E-04 -1.649999997E-03  9.879823968E-04  2.088365391E-03  3.770778085E+01  5.942600000E+02  7.496091882E-01 
       104  1.223776813E-02 -1.650000009E-03  9.880956075E-04  2.347887183E-03  4.119794169E+01  5.942600009E+02  7.450721649E-01 
       105 -1.968786396E-03 -1.649999951E-03  9.883890366E-04  2.088357557E-03  3.774331141E+01  5.942599823E+02  7.496141025E-01 
       106 -1.652977683E-03 -1.649999996E-03  9.883474365E-04  2.088358257E-03  3.773149846E+01  5.942600000E+02  7.496126221E-01 
       107 -1.155706233E-03 -1.649999999E-03  9.882811823E-04  2.088359383E-03  3.771697886E+01  5.942600000E+02  7.496104927E-01 
       108 -7.328599352E-04 -1.649999953E-03  9.882105507E-04  2.088360620E-03  3.770912622E+01  5.942599823E+02  7.496092997E-01 
       109  1.231666688E-02 -1.649999993E-03  9.882706246E-04  7.135758096E-03  4.127058568E+01  5.942600064E+02  6.954978294E-01 
       110 -1.238224737E-02 -1.650000051E-03  9.884166253E-04  8.297874382E-03  4.127901550E+01  5.942600600E+02  0.000000000E+00 
       111 -1.231697450E-02 -1.649999999E-03  9.884940960E-04  7.215634088E-03  4.126579596E+01  5.942600062E+02  6.973508110E-01 
       112 -2.327584992E-03 -1.649999952E-03  9.884358288E-04  2.088356962E-03  3.776130384E+01  5.942599823E+02  7.496162447E-01 
       113  1.238241434E-02 -1.650000051E-03  9.884166253E-04  8.223931417E-03  4.128187025E+01  5.942600601E+02  0.000000000E+00 
       114 -1.223864467E-02 -1.650000051E-03  9.885870638E-04  2.360033053E-03  4.119064835E+01  5.942600186E+02  7.451100940E-01 
       115 -1.214464338E-02 -1.649999994E-03  9.886984689E-04  2.017722325E-03  4.107667278E+01  5.942600000E+02  7.518257149E-01 
       116 -4.517199587E-03 -1.649999963E-03  9.887236864E-04  2.088355743E-03  3.793342512E+01  5.942599867E+02  7.496382847E-01 
       117 -4.414670316E-03 -1.650000033E-03  9.887104562E-04  2.088355742E-03  3.792259693E+01  5.942600133E+02  7.496367427E-01 
       118 -3.651595001E-03 -1.650000048E-03  9.886098026E-04  2.088355713E-03  3.785179160E+01  5.942600177E+02  7.496271642E-01 
       119 -3.094823677E-03 -1.650000049E-03  9.885372614E-04  2.088356033E-03  3.780785991E+01  5.942600177E+02  7.496217440E-01 
       120 -2.793029229E-03 -1.649999951E-03  9.884973581E-04  2.088356251E-03  3.778752447E+01  5.942599823E+02  7.496193237E-01 
       121 -1.203183536E-02 -1.650000008E-03  9.888320552E-04  2.046570883E-03  4.093467121E+01  5.942599999E+02  7.521707866E-01 
       122 -5.373331867E-03 -1.650000002E-03  9.888373881E-04  2.088357650E-03  3.804210938E+01  5.942600000E+02  7.496553251E-01 
       123 -4.706021831E-03 -1.649999978E-03  9.887486688E-04  2.088356160E-03  3.795664608E+01  5.942599911E+02  7.496419809E-01 
       124 -1.189645587E-02 -1.650000052E-03  9.889921867E-04  2.065759440E-03  4.076778694E+01  5.942600176E+02  7.519809292E-01 
       125 -5.769750150E-03 -1.650000058E-03  9.888914969E-04  2.088359447E-03  3.810184470E+01  5.942600177E+02  7.496659858E-01 
       126 -7.038392819E-03 -1.649999978E-03  9.890637268E-04  2.088370016E-03  3.833371794E+01  5.942599911E+02  7.497153647E-01 
       127 -6.777981764E-03 -1.650000004E-03  9.890279205E-04  2.088367525E-03  3.828249896E+01  5.942600000E+02  7.497041064E-01 
       128 -6.208507374E-03 -1.649999986E-03  9.889500532E-04  2.088361958E-03  3.817340895E+01  5.942600000E+02  7.496794434E-01 
       129 -1.173398426E-02 -1.649999973E-03  9.891839625E-04  2.076154658E-03  4.058594261E+01  5.942599911E+02  7.517104506E-01 
       130 -7.317166953E-03 -1.650000004E-03  9.891033433E-04  2.088375229E-03  3.840011092E+01  5.942600000E+02  7.497338469E-01 
       131 -8.713682192E-03 -1.650000053E-03  9.893002256E-04  2.088420440E-03  3.879730832E+01  5.942600177E+02  7.498715130E-01 
       132 -8.332633425E-03 -1.649999946E-03  9.892454469E-04  2.088405098E-03  3.867837328E+01  5.942599823E+02  7.498269037E-01 
       133 -7.874710432E-03 -1.649999955E-03  9.891805000E-04  2.088386987E-03  3.854055939E+01  5.942599823E+02  7.497742473E-01 
       134 -1.153899587E-02 -1.649999945E-03  9.894136741E-04  2.082084346E-03  4.039241090E+01  5.942599822E+02  7.514184533E-01 
       135 -9.733691370E-03 -1.650000000E-03  9.894490791E-04  2.088430156E-03  3.922136183E+01  5.942600000E+02  7.501305983E-01 
       136 -9.556210586E-03 -1.650000046E-03  9.894235574E-04  2.088470200E-03  3.912921692E+01  5.942600177E+02  7.500530770E-01 
       137 -9.266405885E-03 -1.650000050E-03  9.893819229E-04  2.088452664E-03  3.901268919E+01  5.942600177E+02  7.499888477E-01 
       138 -1.041736222E-02 -1.649999955E-03  9.895527119E-04  2.088285486E-03  3.958363176E+01  5.942599823E+02  7.504306191E-01 
       139 -1.130497527E-02 -1.649999952E-03  9.896886455E-04  2.085418615E-03  4.018679687E+01  5.942599822E+02  7.511240482E-01 
       140 -1.104863784E-02 -1.650000007E-03  9.896471749E-04  2.086252861E-03  4.000966296E+01  5.942599999E+02  7.509208932E-01 
       141  1.110265300E-02 -1.649999997E-03  1.972140752E-03  2.071393390E-03  3.929257325E+01  5.942600000E+02  7.523826982E-01 
       142  1.129766783E-02 -1.649999997E-03  1.972047450E-03  2.069958402E-03  3.935573185E+01  5.942600000E+02  7.526600741E-01 
       143  1.038834619E-02 -1.649999990E-03  1.972439484E-03  2.076460122E-03  3.906499630E+01  5.942600000E+02  7.514051033E-01 
       144  9.996815845E-03 -1.649999998E-03  1.972603110E-03  2.076711961E-03  3.894325514E+01  5.942600000E+02  7.510846579E-01 
       145  9.485811853E-03 -1.649999993E-03  1.972800993E-03  2.077019502E-03  3.878859944E+01  5.942600000E+02  7.506793707E-01 
       146  8.598398070E-03 -1.649999998E-03  1.973137196E-03  2.076944272E-03  3.854460194E+01  5.942600000E+02  7.502999136E-01 
       147  8.805409659E-03 -1.650000022E-03  1.973060752E-03  2.076960764E-03  3.859982590E+01  5.942600088E+02  7.503863151E-01 
       148  1.153328860E-02 -1.649999970E-03  1.973080771E-03  2.063034768E-03  3.942246702E+01  5.942599911E+02  7.531462645E-01 
       149  8.091608969E-03 -1.650000003E-03  1.973322042E-03  2.076907334E-03  3.842559671E+01  5.942600000E+02  7.501778194E-01 
       150  7.572601876E-03 -1.650000025E-03  1.973515861E-03  2.076874876E-03  3.831158980E+01  5.942600088E+02  7.500700499E-01 
       151  7.730469083E-03 -1.650000002E-03  1.973458047E-03  2.076881607E-03  3.834272361E+01  5.942600000E+02  7.500929732E-01 
