nodenumber     x-coordinate     y-coordinate     z-coordinate turb-kinetic-energy         pressure      temperature velocity-magnitude 
         1 -1.238224696E-02 -1.650000007E-03  0.000000000E+00  3.982684499E-03  3.944831320E+01  5.942600155E+02  0.000000000E+00 
         2 -1.231646687E-02 -1.649999949E-03  0.000000000E+00  1.892755311E-03  3.938823035E+01  5.942599823E+02  7.104468555E-01 
         3 -1.223752875E-02 -1.650000008E-03  0.000000000E+00  1.892755367E-03  3.923779305E+01  5.942600000E+02  7.104468767E-01 
         4 -1.214279805E-02 -1.649999951E-03  0.000000000E+00  1.892755311E-03  3.904276381E+01  5.942599823E+02  7.104468555E-01 
         5 -1.202911553E-02 -1.649999951E-03  0.000000000E+00  1.892755311E-03  3.881694619E+01  5.942599823E+02  7.104468555E-01 
         6 -1.189268779E-02 -1.650000001E-03  0.000000000E+00  1.892755367E-03  3.856719412E+01  5.942600000E+02  7.104468767E-01 
         7 -1.172896070E-02 -1.650000028E-03  0.000000000E+00  1.892755395E-03  3.830408634E+01  5.942600089E+02  7.104468873E-01 
         8 -1.153246726E-02 -1.649999968E-03  0.000000000E+00  1.892755339E-03  3.803041208E+01  5.942599911E+02  7.104468661E-01 
         9 -1.129664480E-02 -1.649999999E-03  0.000000000E+00  1.892755367E-03  3.761947006E+01  5.942600000E+02  7.104468767E-01 
        10 -1.104180182E-02 -1.649999952E-03  0.000000000E+00  1.892755311E-03  3.744956679E+01  5.942599823E+02  7.104468555E-01 
        11 -1.040965475E-02 -1.650000037E-03  0.000000000E+00  1.892755424E-03  3.703787366E+01  5.942600177E+02  7.104468978E-01 
        12 -9.727797567E-03 -1.649999974E-03  0.000000000E+00  1.892755339E-03  3.663034130E+01  5.942599911E+02  7.104468661E-01 
        13 -9.549135039E-03 -1.650000016E-03  0.000000000E+00  1.892755395E-03  3.652493328E+01  5.942600089E+02  7.104468873E-01 
        14 -9.257402967E-03 -1.649999996E-03  0.000000000E+00  1.892755367E-03  3.640208924E+01  5.942600000E+02  7.104468767E-01 
        15 -8.707201624E-03 -1.650000004E-03  0.000000000E+00  1.892755367E-03  3.617630824E+01  5.942600000E+02  7.104468767E-01 
        16 -8.327874969E-03 -1.650000002E-03  0.000000000E+00  1.892755367E-03  3.605441114E+01  5.942600000E+02  7.104468767E-01 
        17 -7.868819436E-03 -1.650000009E-03  0.000000000E+00  1.892755367E-03  3.591128166E+01  5.942600000E+02  7.104468767E-01 
        18 -7.309914944E-03 -1.650000005E-03  0.000000000E+00  1.892755367E-03  3.577017777E+01  5.942600000E+02  7.104468767E-01 
        19 -7.033056079E-03 -1.649999952E-03  0.000000000E+00  1.892755311E-03  3.570442165E+01  5.942599823E+02  7.104468555E-01 
        20 -6.774404682E-03 -1.650000049E-03  0.000000000E+00  1.892755424E-03  3.565492408E+01  5.942600177E+02  7.104468978E-01 
        21 -6.203718579E-03 -1.649999993E-03  0.000000000E+00  1.892755367E-03  3.554958531E+01  5.942600000E+02  7.104468767E-01 
        22 -5.764059055E-03 -1.650000057E-03  0.000000000E+00  1.892755424E-03  3.547905260E+01  5.942600177E+02  7.104468978E-01 
        23 -5.369046210E-03 -1.650000008E-03  0.000000000E+00  1.892755367E-03  3.542110224E+01  5.942600000E+02  7.104468767E-01 
        24 -4.703991919E-03 -1.649999998E-03  0.000000000E+00  1.892755367E-03  3.533828884E+01  5.942600000E+02  7.104468767E-01 
        25 -4.513416810E-03 -1.649999963E-03  0.000000000E+00  1.892755325E-03  3.531542649E+01  5.942599867E+02  7.104468608E-01 
        26 -4.409949101E-03 -1.650000002E-03  0.000000000E+00  1.892755367E-03  3.530485601E+01  5.942600000E+02  7.104468767E-01 
        27 -3.648226494E-03 -1.649999989E-03  0.000000000E+00  1.892755367E-03  3.523621397E+01  5.942600000E+02  7.104468767E-01 
        28 -3.090814824E-03 -1.649999990E-03  0.000000000E+00  1.892755367E-03  3.519291118E+01  5.942600000E+02  7.104468767E-01 
        29 -2.790049428E-03 -1.649999975E-03  0.000000000E+00  1.892755339E-03  3.517309217E+01  5.942599911E+02  7.104468661E-01 
        30 -2.326109559E-03 -1.650000046E-03  0.000000000E+00  1.892755424E-03  3.514791099E+01  5.942600177E+02  7.104468978E-01 
        31 -1.966101120E-03 -1.650000005E-03  0.000000000E+00  1.892755367E-03  3.513044132E+01  5.942600000E+02  7.104468767E-01 
        32 -1.649288649E-03 -1.650000004E-03  0.000000000E+00  1.892755367E-03  3.511915175E+01  5.942600000E+02  7.104468767E-01 
        33 -1.153324779E-03 -1.650000049E-03  0.000000000E+00  1.892755424E-03  3.510555327E+01  5.942600177E+02  7.104468978E-01 
        34 -7.314993435E-04 -1.649999992E-03  0.000000000E+00  1.892755367E-03  3.509779540E+01  5.942600000E+02  7.104468767E-01 
        35 -3.521276869E-04 -1.650000043E-03  0.000000000E+00  1.892755424E-03  3.509330800E+01  5.942600177E+02  7.104468978E-01 
        36  2.062356178E-04 -1.650000004E-03  0.000000000E+00  1.892755367E-03  3.509255138E+01  5.942600000E+02  7.104468767E-01 
        37  4.531226353E-04 -1.649999970E-03  0.000000000E+00  1.892755339E-03  3.509341235E+01  5.942599911E+02  7.104468661E-01 
        38  5.816147412E-04 -1.650000031E-03  0.000000000E+00  1.892755395E-03  3.509542020E+01  5.942600089E+02  7.104468873E-01 
        39  1.287381078E-03 -1.649999940E-03  0.000000000E+00  1.892755311E-03  3.511181728E+01  5.942599823E+02  7.104468555E-01 
        40  1.817906072E-03 -1.650000045E-03  0.000000000E+00  1.892755424E-03  3.512921558E+01  5.942600177E+02  7.104468978E-01 
        41  2.171618469E-03 -1.649999958E-03  0.000000000E+00  1.892755311E-03  3.514446831E+01  5.942599823E+02  7.104468555E-01 
        42  2.917015337E-03 -1.650000026E-03  0.000000000E+00  1.892755395E-03  3.518541434E+01  5.942600089E+02  7.104468873E-01 
        43  3.060138752E-03 -1.649999982E-03  0.000000000E+00  1.892755346E-03  3.519382756E+01  5.942599934E+02  7.104468687E-01 
        44  3.122627803E-03 -1.650000012E-03  0.000000000E+00  1.892755381E-03  3.519825963E+01  5.942600044E+02  7.104468820E-01 
        45  3.948750735E-03 -1.649999946E-03  0.000000000E+00  1.892755311E-03  3.526591075E+01  5.942599823E+02  7.104468555E-01 
        46  4.233552192E-03 -1.650000005E-03  0.000000000E+00  1.892755367E-03  3.529106836E+01  5.942600000E+02  7.104468767E-01 
        47  4.833507872E-03 -1.649999945E-03  0.000000000E+00  1.892755311E-03  3.535596769E+01  5.942599823E+02  7.104468555E-01 
        48  5.160210487E-03 -1.649999946E-03  0.000000000E+00  1.892755311E-03  3.539599925E+01  5.942599823E+02  7.104468555E-01 
        49  5.783248106E-03 -1.650000052E-03  0.000000000E+00  1.892755424E-03  3.548651558E+01  5.942600177E+02  7.104468978E-01 
        50  6.035984549E-03 -1.649999976E-03  0.000000000E+00  1.892755339E-03  3.552535567E+01  5.942599911E+02  7.104468661E-01 
        51  6.237400109E-03 -1.650000022E-03  0.000000000E+00  1.892755395E-03  3.556081776E+01  5.942600089E+02  7.104468873E-01 
        52  6.881112835E-03 -1.650000056E-03  0.000000000E+00  1.892755424E-03  3.567949814E+01  5.942600177E+02  7.104468978E-01 
        53  7.573470319E-03 -1.649999997E-03  0.000000000E+00  1.892755367E-03  3.583696574E+01  5.942600000E+02  7.104468767E-01 
        54  7.730792309E-03 -1.650000003E-03  0.000000000E+00  1.892755367E-03  3.587399643E+01  5.942600000E+02  7.104468767E-01 
        55  8.090815089E-03 -1.650000001E-03  0.000000000E+00  1.892755367E-03  3.598190409E+01  5.942600000E+02  7.104468767E-01 
        56  8.598449542E-03 -1.650000003E-03  0.000000000E+00  1.892755367E-03  3.613776382E+01  5.942600000E+02  7.104468767E-01 
        57  8.805739513E-03 -1.650000003E-03  0.000000000E+00  1.892755367E-03  3.622112363E+01  5.942600000E+02  7.104468767E-01 
        58  9.485623847E-03 -1.649999997E-03  0.000000000E+00  1.892755367E-03  3.650508586E+01  5.942600000E+02  7.104468767E-01 
        59  9.996717122E-03 -1.650000053E-03  0.000000000E+00  1.892755424E-03  3.680195103E+01  5.942600177E+02  7.104468978E-01 
        60  1.038796781E-02 -1.650000000E-03  0.000000000E+00  1.892755367E-03  3.703931536E+01  5.942600000E+02  7.104468767E-01 
        61  1.110225324E-02 -1.650000050E-03  0.000000000E+00  1.892755424E-03  3.751006406E+01  5.942600177E+02  7.104468978E-01 
        62  1.129715473E-02 -1.650000051E-03  0.000000000E+00  1.892755424E-03  3.764122840E+01  5.942600177E+02  7.104468978E-01 
        63  1.153289457E-02 -1.649999949E-03  0.000000000E+00  1.892755311E-03  3.806137328E+01  5.942599823E+02  7.104468555E-01 
        64  1.172932302E-02 -1.649999996E-03  0.000000000E+00  1.892755367E-03  3.834347477E+01  5.942600000E+02  7.104468767E-01 
        65  1.189299876E-02 -1.650000052E-03  0.000000000E+00  1.892755424E-03  3.861606091E+01  5.942600177E+02  7.104468978E-01 
        66  1.202938442E-02 -1.649999949E-03  0.000000000E+00  1.892755311E-03  3.887634473E+01  5.942599823E+02  7.104468555E-01 
        67  1.214303390E-02 -1.650000044E-03  0.000000000E+00  1.892755424E-03  3.911257885E+01  5.942600177E+02  7.104468978E-01 
        68  1.223773642E-02 -1.650000012E-03  0.000000000E+00  1.892755367E-03  3.931709850E+01  5.942600000E+02  7.104468767E-01 
        69  1.231665286E-02 -1.650000046E-03  0.000000000E+00  1.892755424E-03  3.947479097E+01  5.942600177E+02  7.104468978E-01 
        70  1.238241385E-02 -1.649999998E-03  0.000000000E+00  3.956865411E-03  3.953741265E+01  5.942600155E+02  0.000000000E+00 
        71  1.110245300E-02 -1.649999996E-03  9.860657205E-04  1.874573711E-03  3.722523799E+01  5.942599999E+02  7.118903574E-01 
        72  1.129741118E-02 -1.649999994E-03  9.860237298E-04  1.874066250E-03  3.734846164E+01  5.942599999E+02  7.120505752E-01 
        73  1.038815708E-02 -1.649999987E-03  9.861987235E-04  1.876362961E-03  3.678723456E+01  5.942600000E+02  7.113278368E-01 
        74  8.805574705E-03 -1.650000021E-03  9.864727040E-04  1.876397897E-03  3.611765108E+01  5.942600088E+02  7.108050241E-01 
        75  9.485717905E-03 -1.650000014E-03  9.863583903E-04  1.876446328E-03  3.636208829E+01  5.942600000E+02  7.109436600E-01 
        76  9.996766092E-03 -1.649999943E-03  9.862710097E-04  1.876400669E-03  3.659995079E+01  5.942599823E+02  7.111580028E-01 
        77  7.730630904E-03 -1.650000039E-03  9.866502961E-04  1.876349688E-03  3.580835126E+01  5.942600133E+02  7.106725736E-01 
        78  8.091212126E-03 -1.649999999E-03  9.865892570E-04  1.876363681E-03  3.590572121E+01  5.942600000E+02  7.107100152E-01 
        79  8.598423723E-03 -1.649999983E-03  9.865066297E-04  1.876383872E-03  3.604592834E+01  5.942599911E+02  7.107640133E-01 
        80  1.153309208E-02 -1.650000032E-03  9.865404178E-04  1.871251734E-03  3.753433194E+01  5.942600088E+02  7.123591308E-01 
        81  7.573036225E-03 -1.650000030E-03  9.866765862E-04  1.876346205E-03  3.577386762E+01  5.942600088E+02  7.106628726E-01 
        82  5.783215100E-03 -1.650000004E-03  9.869826635E-04  1.876317236E-03  3.544569085E+01  5.942600000E+02  7.105825294E-01 
        83  6.035506259E-03 -1.649999949E-03  9.869375075E-04  1.876319715E-03  3.548099776E+01  5.942599823E+02  7.105887312E-01 
        84  6.236595952E-03 -1.650000002E-03  9.869024133E-04  1.876322556E-03  3.551491132E+01  5.942600000E+02  7.105963123E-01 
        85  6.880806203E-03 -1.649999944E-03  9.867931445E-04  1.876331309E-03  3.562723922E+01  5.942599823E+02  7.106208085E-01 
        86  1.172947215E-02 -1.650000029E-03  9.869723181E-04  1.866204114E-03  3.771018994E+01  5.942600088E+02  7.126674390E-01 
        87  4.832561986E-03 -1.649999941E-03  9.871570102E-04  1.876308921E-03  3.532305479E+01  5.942599823E+02  7.105620420E-01 
        88  5.159606270E-03 -1.650000004E-03  9.870976822E-04  1.876311385E-03  3.536195185E+01  5.942600000E+02  7.105680476E-01 
        89  3.947734035E-03 -1.649999955E-03  9.873277149E-04  1.876302938E-03  3.523423880E+01  5.942599823E+02  7.105491812E-01 
        90  4.232942892E-03 -1.649999946E-03  9.872707921E-04  1.876304718E-03  3.525927912E+01  5.942599823E+02  7.105524360E-01 
        91  1.189310817E-02 -1.649999954E-03  9.873330752E-04  1.857349188E-03  3.787626525E+01  5.942599822E+02  7.129553704E-01 
        92  2.914795121E-03 -1.649999999E-03  9.875323253E-04  1.876297155E-03  3.515762492E+01  5.942600000E+02  7.105396006E-01 
        93  3.058937451E-03 -1.650000039E-03  9.875036176E-04  1.876297917E-03  3.516581106E+01  5.942600133E+02  7.105405178E-01 
        94  3.121859929E-03 -1.649999985E-03  9.874906111E-04  1.876298205E-03  3.517001203E+01  5.942599956E+02  7.105409882E-01 
        95  1.285714191E-03 -1.649999950E-03  9.878538017E-04  1.876289523E-03  3.508631510E+01  5.942599823E+02  7.105314872E-01 
        96  1.816924899E-03 -1.650000049E-03  9.877480907E-04  1.876291937E-03  3.510331674E+01  5.942600177E+02  7.105335979E-01 
        97  2.170191834E-03 -1.650000044E-03  9.876810309E-04  1.876293509E-03  3.511816361E+01  5.942600177E+02  7.105352575E-01 
        98  1.202946298E-02 -1.649999953E-03  9.876343321E-04  1.841053123E-03  3.802885786E+01  5.942599822E+02  7.131651273E-01 
        99  1.214308635E-02 -1.649999988E-03  9.878858045E-04  1.816249178E-03  3.815854393E+01  5.942600000E+02  7.128373066E-01 
       100 -3.542577826E-04 -1.650000007E-03  9.881497301E-04  1.876283692E-03  3.506822721E+01  5.942600000E+02  7.105293106E-01 
       101  2.031021205E-04 -1.649999952E-03  9.880507533E-04  1.876285453E-03  3.506777200E+01  5.942599823E+02  7.105293652E-01 
       102  4.512136878E-04 -1.649999952E-03  9.880065915E-04  1.876286295E-03  3.506862233E+01  5.942599823E+02  7.105292858E-01 
       103  5.803136392E-04 -1.649999997E-03  9.879823968E-04  1.876286857E-03  3.507064625E+01  5.942600000E+02  7.105298287E-01 
       104  1.223776813E-02 -1.650000009E-03  9.880956075E-04  2.125877670E-03  3.826155342E+01  5.942600008E+02  7.061030488E-01 
       105 -1.968786396E-03 -1.649999951E-03  9.883890366E-04  1.876279886E-03  3.510497438E+01  5.942599823E+02  7.105345466E-01 
       106 -1.652977683E-03 -1.649999996E-03  9.883474365E-04  1.876280499E-03  3.509387793E+01  5.942600000E+02  7.105331404E-01 
       107 -1.155706233E-03 -1.649999999E-03  9.882811823E-04  1.876281488E-03  3.508016469E+01  5.942600000E+02  7.105311285E-01 
       108 -7.328599352E-04 -1.649999953E-03  9.882105507E-04  1.876282586E-03  3.507266114E+01  5.942599823E+02  7.105299558E-01 
       109  1.231666688E-02 -1.649999993E-03  9.882706246E-04  6.513508520E-03  3.832781152E+01  5.942600058E+02  6.583919434E-01 
       110 -1.238224737E-02 -1.650000051E-03  9.884166253E-04  7.578019697E-03  3.834194631E+01  5.942600558E+02  0.000000000E+00 
       111 -1.231697450E-02 -1.649999999E-03  9.884940960E-04  6.587030790E-03  3.832986904E+01  5.942600056E+02  6.601590937E-01 
       112 -2.327584992E-03 -1.649999952E-03  9.884358288E-04  1.876279373E-03  3.512180370E+01  5.942599823E+02  7.105365819E-01 
       113  1.238241434E-02 -1.650000051E-03  9.884166253E-04  7.509964768E-03  3.833810689E+01  5.942600558E+02  0.000000000E+00 
       114 -1.223864467E-02 -1.650000051E-03  9.885870638E-04  2.137435465E-03  3.826130926E+01  5.942600185E+02  7.061403218E-01 
       115 -1.214464338E-02 -1.649999994E-03  9.886984689E-04  1.812637159E-03  3.815744465E+01  5.942600000E+02  7.126606400E-01 
       116 -4.517199587E-03 -1.649999963E-03  9.887236864E-04  1.876278495E-03  3.528191582E+01  5.942599867E+02  7.105575197E-01 
       117 -4.414670316E-03 -1.650000033E-03  9.887104562E-04  1.876278480E-03  3.527187621E+01  5.942600133E+02  7.105560549E-01 
       118 -3.651595001E-03 -1.650000048E-03  9.886098026E-04  1.876278364E-03  3.520611685E+01  5.942600177E+02  7.105469571E-01 
       119 -3.094823677E-03 -1.650000049E-03  9.885372614E-04  1.876278597E-03  3.516525025E+01  5.942600177E+02  7.105418064E-01 
       120 -2.793029229E-03 -1.649999951E-03  9.884973581E-04  1.876278767E-03  3.514629376E+01  5.942599823E+02  7.105395058E-01 
       121 -1.203183536E-02 -1.650000008E-03  9.888320552E-04  1.838290102E-03  3.802773230E+01  5.942599999E+02  7.129998076E-01 
       122 -5.373331867E-03 -1.650000002E-03  9.888373881E-04  1.876280355E-03  3.538252416E+01  5.942600000E+02  7.105737000E-01 
       123 -4.706021831E-03 -1.649999978E-03  9.887486688E-04  1.876278902E-03  3.530341326E+01  5.942599911E+02  7.105610288E-01 
       124 -1.189645587E-02 -1.650000052E-03  9.889921867E-04  1.855790069E-03  3.787527567E+01  5.942600176E+02  7.128181719E-01 
       125 -5.769750150E-03 -1.650000058E-03  9.888914969E-04  1.876282054E-03  3.543771010E+01  5.942600177E+02  7.105838241E-01 
       126 -7.038392819E-03 -1.649999978E-03  9.890637268E-04  1.876291913E-03  3.565141131E+01  5.942599911E+02  7.106308382E-01 
       127 -6.777981764E-03 -1.650000004E-03  9.890279205E-04  1.876289595E-03  3.560423410E+01  5.942600000E+02  7.106201155E-01 
       128 -6.208507374E-03 -1.649999986E-03  9.889500532E-04  1.876284419E-03  3.550376485E+01  5.942600000E+02  7.105966180E-01 
       129 -1.173398426E-02 -1.649999973E-03  9.891839625E-04  1.865241567E-03  3.770906515E+01  5.942599911E+02  7.125579361E-01 
       130 -7.317166953E-03 -1.650000004E-03  9.891033433E-04  1.876296730E-03  3.571240234E+01  5.942600000E+02  7.106485119E-01 
       131 -8.713682192E-03 -1.650000053E-03  9.893002256E-04  1.876338557E-03  3.607654156E+01  5.942600177E+02  7.107806875E-01 
       132 -8.332633425E-03 -1.649999946E-03  9.892454469E-04  1.876324362E-03  3.596759963E+01  5.942599823E+02  7.107378044E-01 
       133 -7.874710432E-03 -1.649999955E-03  9.891805000E-04  1.876307595E-03  3.584136718E+01  5.942599823E+02  7.106871764E-01 
       134 -1.153899587E-02 -1.649999945E-03  9.894136741E-04  1.870619682E-03  3.753225790E+01  5.942599822E+02  7.122765338E-01 
       135 -9.733691370E-03 -1.650000000E-03  9.894490791E-04  1.876350466E-03  3.646389514E+01  5.942600000E+02  7.110310835E-01 
       136 -9.556210586E-03 -1.650000046E-03  9.894235574E-04  1.876385529E-03  3.637982586E+01  5.942600177E+02  7.109560418E-01 
       137 -9.266405885E-03 -1.650000050E-03  9.893819229E-04  1.876368966E-03  3.627335285E+01  5.942600177E+02  7.108940053E-01 
       138 -1.041736222E-02 -1.649999955E-03  9.895527119E-04  1.876224092E-03  3.679440305E+01  5.942599823E+02  7.113215103E-01 
       139 -1.130497527E-02 -1.649999952E-03  9.896886455E-04  1.873638850E-03  3.734456147E+01  5.942599822E+02  7.119923266E-01 
       140 -1.104863784E-02 -1.650000007E-03  9.896471749E-04  1.874391127E-03  3.718299900E+01  5.942599999E+02  7.117957930E-01 
       141  1.110265300E-02 -1.649999997E-03  1.972140752E-03  1.861032812E-03  3.652036185E+01  5.942600000E+02  7.132039411E-01 
       142  1.129766783E-02 -1.649999997E-03  1.972047450E-03  1.859737545E-03  3.657799919E+01  5.942600000E+02  7.134716334E-01 
       143  1.038834619E-02 -1.649999990E-03  1.972439484E-03  1.865605908E-03  3.631268530E+01  5.942600000E+02  7.122604681E-01 
       144  9.996815845E-03 -1.649999998E-03  1.972603110E-03  1.865829765E-03  3.620143560E+01  5.942600000E+02  7.119513592E-01 
       145  9.485811853E-03 -1.649999993E-03  1.972800993E-03  1.866103067E-03  3.606011578E+01  5.942600000E+02  7.115604109E-01 
       146  8.598398070E-03 -1.649999998E-03  1.973137196E-03  1.866031480E-03  3.583684681E+01  5.942600000E+02  7.111947678E-01 
       147  8.805409659E-03 -1.650000022E-03  1.973060752E-03  1.866047193E-03  3.588737505E+01  5.942600088E+02  7.112780242E-01 
       148  1.153328860E-02 -1.649999970E-03  1.973080771E-03  1.853471168E-03  3.663882607E+01  5.942599911E+02  7.139410628E-01 
       149  8.091608969E-03 -1.650000003E-03  1.973322042E-03  1.865997255E-03  3.572782395E+01  5.942600000E+02  7.110773031E-01 
       150  7.572601876E-03 -1.650000025E-03  1.973515861E-03  1.865967215E-03  3.562335511E+01  5.942600088E+02  7.109736577E-01 
       151  7.730469083E-03 -1.650000002E-03  1.973458047E-03  1.865973424E-03  3.565190586E+01  5.942600000E+02  7.109956749E-01 
