nodenumber     x-coordinate     y-coordinate     z-coordinate turb-kinetic-energy         pressure      temperature velocity-magnitude 
         1 -1.238224696E-02 -1.650000007E-03  0.000000000E+00  4.256539747E-03  4.155383370E+01  5.942600167E+02  0.000000000E+00 
         2 -1.231646687E-02 -1.649999949E-03  0.000000000E+00  2.040536046E-03  4.148986474E+01  5.942599823E+02  7.376604432E-01 
         3 -1.223752875E-02 -1.650000008E-03  0.000000000E+00  2.040536107E-03  4.132958588E+01  5.942600000E+02  7.376604652E-01 
         4 -1.214279805E-02 -1.649999951E-03  0.000000000E+00  2.040536046E-03  4.112164243E+01  5.942599823E+02  7.376604432E-01 
         5 -1.202911553E-02 -1.649999951E-03  0.000000000E+00  2.040536046E-03  4.088098526E+01  5.942599823E+02  7.376604432E-01 
         6 -1.189268779E-02 -1.650000001E-03  0.000000000E+00  2.040536107E-03  4.061507454E+01  5.942600000E+02  7.376604652E-01 
         7 -1.172896070E-02 -1.650000028E-03  0.000000000E+00  2.040536137E-03  4.033505962E+01  5.942600089E+02  7.376604762E-01 
         8 -1.153246726E-02 -1.649999968E-03  0.000000000E+00  2.040536077E-03  4.004379540E+01  5.942599911E+02  7.376604542E-01 
         9 -1.129664480E-02 -1.649999999E-03  0.000000000E+00  2.040536107E-03  3.960627215E+01  5.942600000E+02  7.376604652E-01 
        10 -1.104180182E-02 -1.649999952E-03  0.000000000E+00  2.040536046E-03  3.942529594E+01  5.942599823E+02  7.376604432E-01 
        11 -1.040965475E-02 -1.650000037E-03  0.000000000E+00  2.040536168E-03  3.898678602E+01  5.942600177E+02  7.376604872E-01 
        12 -9.727797567E-03 -1.649999974E-03  0.000000000E+00  2.040536077E-03  3.855261937E+01  5.942599911E+02  7.376604542E-01 
        13 -9.549135039E-03 -1.650000016E-03  0.000000000E+00  2.040536137E-03  3.844032438E+01  5.942600089E+02  7.376604762E-01 
        14 -9.257402967E-03 -1.649999996E-03  0.000000000E+00  2.040536107E-03  3.830952499E+01  5.942600000E+02  7.376604652E-01 
        15 -8.707201624E-03 -1.650000004E-03  0.000000000E+00  2.040536107E-03  3.806914278E+01  5.942600000E+02  7.376604652E-01 
        16 -8.327874969E-03 -1.650000002E-03  0.000000000E+00  2.040536107E-03  3.793953374E+01  5.942600000E+02  7.376604652E-01 
        17 -7.868819436E-03 -1.650000009E-03  0.000000000E+00  2.040536107E-03  3.778734515E+01  5.942600000E+02  7.376604652E-01 
        18 -7.309914944E-03 -1.650000005E-03  0.000000000E+00  2.040536107E-03  3.763754775E+01  5.942600000E+02  7.376604652E-01 
        19 -7.033056079E-03 -1.649999952E-03  0.000000000E+00  2.040536046E-03  3.756776451E+01  5.942599823E+02  7.376604432E-01 
        20 -6.774404682E-03 -1.650000049E-03  0.000000000E+00  2.040536168E-03  3.751532885E+01  5.942600177E+02  7.376604872E-01 
        21 -6.203718579E-03 -1.649999993E-03  0.000000000E+00  2.040536107E-03  3.740372436E+01  5.942600000E+02  7.376604652E-01 
        22 -5.764059055E-03 -1.650000057E-03  0.000000000E+00  2.040536168E-03  3.732910857E+01  5.942600177E+02  7.376604872E-01 
        23 -5.369046210E-03 -1.650000008E-03  0.000000000E+00  2.040536107E-03  3.726784594E+01  5.942600000E+02  7.376604652E-01 
        24 -4.703991919E-03 -1.649999998E-03  0.000000000E+00  2.040536107E-03  3.718041990E+01  5.942600000E+02  7.376604652E-01 
        25 -4.513416810E-03 -1.649999963E-03  0.000000000E+00  2.040536061E-03  3.715628516E+01  5.942599867E+02  7.376604487E-01 
        26 -4.409949101E-03 -1.650000002E-03  0.000000000E+00  2.040536107E-03  3.714513786E+01  5.942600000E+02  7.376604652E-01 
        27 -3.648226494E-03 -1.649999989E-03  0.000000000E+00  2.040536107E-03  3.707283909E+01  5.942600000E+02  7.376604652E-01 
        28 -3.090814824E-03 -1.649999990E-03  0.000000000E+00  2.040536107E-03  3.702727870E+01  5.942600000E+02  7.376604652E-01 
        29 -2.790049428E-03 -1.649999975E-03  0.000000000E+00  2.040536077E-03  3.700645782E+01  5.942599911E+02  7.376604542E-01 
        30 -2.326109559E-03 -1.650000046E-03  0.000000000E+00  2.040536168E-03  3.698003848E+01  5.942600177E+02  7.376604872E-01 
        31 -1.966101120E-03 -1.650000005E-03  0.000000000E+00  2.040536107E-03  3.696172744E+01  5.942600000E+02  7.376604652E-01 
        32 -1.649288649E-03 -1.650000004E-03  0.000000000E+00  2.040536107E-03  3.694992842E+01  5.942600000E+02  7.376604652E-01 
        33 -1.153324779E-03 -1.650000049E-03  0.000000000E+00  2.040536168E-03  3.693577121E+01  5.942600177E+02  7.376604872E-01 
        34 -7.314993435E-04 -1.649999992E-03  0.000000000E+00  2.040536107E-03  3.692775033E+01  5.942600000E+02  7.376604652E-01 
        35 -3.521276869E-04 -1.650000043E-03  0.000000000E+00  2.040536168E-03  3.692316780E+01  5.942600177E+02  7.376604872E-01 
        36  2.062356178E-04 -1.650000004E-03  0.000000000E+00  2.040536107E-03  3.692259185E+01  5.942600000E+02  7.376604652E-01 
        37  4.531226353E-04 -1.649999970E-03  0.000000000E+00  2.040536077E-03  3.692360092E+01  5.942599911E+02  7.376604542E-01 
        38  5.816147412E-04 -1.650000031E-03  0.000000000E+00  2.040536137E-03  3.692577519E+01  5.942600089E+02  7.376604762E-01 
        39  1.287381078E-03 -1.649999940E-03  0.000000000E+00  2.040536046E-03  3.694339711E+01  5.942599823E+02  7.376604432E-01 
        40  1.817906072E-03 -1.650000045E-03  0.000000000E+00  2.040536168E-03  3.696200629E+01  5.942600177E+02  7.376604872E-01 
        41  2.171618469E-03 -1.649999958E-03  0.000000000E+00  2.040536046E-03  3.697827839E+01  5.942599823E+02  7.376604432E-01 
        42  2.917015337E-03 -1.650000026E-03  0.000000000E+00  2.040536137E-03  3.702188053E+01  5.942600089E+02  7.376604762E-01 
        43  3.060138752E-03 -1.649999982E-03  0.000000000E+00  2.040536084E-03  3.703083519E+01  5.942599934E+02  7.376604569E-01 
        44  3.122627803E-03 -1.650000012E-03  0.000000000E+00  2.040536122E-03  3.703554813E+01  5.942600044E+02  7.376604707E-01 
        45  3.948750735E-03 -1.649999946E-03  0.000000000E+00  2.040536046E-03  3.710745450E+01  5.942599823E+02  7.376604432E-01 
        46  4.233552192E-03 -1.650000005E-03  0.000000000E+00  2.040536107E-03  3.713418608E+01  5.942600000E+02  7.376604652E-01 
        47  4.833507872E-03 -1.649999945E-03  0.000000000E+00  2.040536046E-03  3.720313440E+01  5.942599823E+02  7.376604432E-01 
        48  5.160210487E-03 -1.649999946E-03  0.000000000E+00  2.040536046E-03  3.724565178E+01  5.942599823E+02  7.376604432E-01 
        49  5.783248106E-03 -1.650000052E-03  0.000000000E+00  2.040536168E-03  3.734182258E+01  5.942600177E+02  7.376604872E-01 
        50  6.035984549E-03 -1.649999976E-03  0.000000000E+00  2.040536077E-03  3.738308813E+01  5.942599911E+02  7.376604542E-01 
        51  6.237400109E-03 -1.650000022E-03  0.000000000E+00  2.040536137E-03  3.742078113E+01  5.942600089E+02  7.376604762E-01 
        52  6.881112835E-03 -1.650000056E-03  0.000000000E+00  2.040536168E-03  3.754690794E+01  5.942600177E+02  7.376604872E-01 
        53  7.573470319E-03 -1.649999997E-03  0.000000000E+00  2.040536107E-03  3.771435692E+01  5.942600000E+02  7.376604652E-01 
        54  7.730792309E-03 -1.650000003E-03  0.000000000E+00  2.040536107E-03  3.775373090E+01  5.942600000E+02  7.376604652E-01 
        55  8.090815089E-03 -1.650000001E-03  0.000000000E+00  2.040536107E-03  3.786854297E+01  5.942600000E+02  7.376604652E-01 
        56  8.598449542E-03 -1.650000003E-03  0.000000000E+00  2.040536107E-03  3.803437207E+01  5.942600000E+02  7.376604652E-01 
        57  8.805739513E-03 -1.650000003E-03  0.000000000E+00  2.040536107E-03  3.812311576E+01  5.942600000E+02  7.376604652E-01 
        58  9.485623847E-03 -1.649999997E-03  0.000000000E+00  2.040536107E-03  3.842540480E+01  5.942600000E+02  7.376604652E-01 
        59  9.996717122E-03 -1.650000053E-03  0.000000000E+00  2.040536168E-03  3.874155643E+01  5.942600177E+02  7.376604872E-01 
        60  1.038796781E-02 -1.650000000E-03  0.000000000E+00  2.040536107E-03  3.899433843E+01  5.942600000E+02  7.376604652E-01 
        61  1.110225324E-02 -1.650000050E-03  0.000000000E+00  2.040536168E-03  3.949573730E+01  5.942600177E+02  7.376604872E-01 
        62  1.129715473E-02 -1.650000051E-03  0.000000000E+00  2.040536168E-03  3.963543982E+01  5.942600177E+02  7.376604872E-01 
        63  1.153289457E-02 -1.649999949E-03  0.000000000E+00  2.040536046E-03  4.008292608E+01  5.942599823E+02  7.376604432E-01 
        64  1.172932302E-02 -1.649999996E-03  0.000000000E+00  2.040536107E-03  4.038333762E+01  5.942600000E+02  7.376604652E-01 
        65  1.189299876E-02 -1.650000052E-03  0.000000000E+00  2.040536168E-03  4.067358135E+01  5.942600177E+02  7.376604872E-01 
        66  1.202938442E-02 -1.649999949E-03  0.000000000E+00  2.040536046E-03  4.095076650E+01  5.942599823E+02  7.376604432E-01 
        67  1.214303390E-02 -1.650000044E-03  0.000000000E+00  2.040536168E-03  4.120250700E+01  5.942600177E+02  7.376604872E-01 
        68  1.223773642E-02 -1.650000012E-03  0.000000000E+00  2.040536107E-03  4.142061036E+01  5.942600000E+02  7.376604652E-01 
        69  1.231665286E-02 -1.650000046E-03  0.000000000E+00  2.040536168E-03  4.158870987E+01  5.942600177E+02  7.376604872E-01 
        70  1.238241385E-02 -1.649999998E-03  0.000000000E+00  4.229339024E-03  4.165540316E+01  5.942600167E+02  0.000000000E+00 
        71  1.110245300E-02 -1.649999996E-03  9.860657205E-04  2.020928409E-03  3.919234383E+01  5.942599999E+02  7.391410219E-01 
        72  1.129741118E-02 -1.649999994E-03  9.860237298E-04  2.020382294E-03  3.932359862E+01  5.942599999E+02  7.393052928E-01 
        73  1.038815708E-02 -1.649999987E-03  9.861987235E-04  2.022854141E-03  3.872578774E+01  5.942600000E+02  7.385642769E-01 
        74  8.805574705E-03 -1.650000021E-03  9.864727040E-04  2.022897333E-03  3.801286815E+01  5.942600088E+02  7.380279686E-01 
        75  9.485717905E-03 -1.650000014E-03  9.863583903E-04  2.022948046E-03  3.827303427E+01  5.942600000E+02  7.381702490E-01 
        76  9.996766092E-03 -1.649999943E-03  9.862710097E-04  2.022896592E-03  3.852634474E+01  5.942599823E+02  7.383900871E-01 
        77  7.730630904E-03 -1.650000039E-03  9.866502961E-04  2.022846589E-03  3.768382755E+01  5.942600133E+02  7.378919383E-01 
        78  8.091212126E-03 -1.649999999E-03  9.865892570E-04  2.022861351E-03  3.778739643E+01  5.942600000E+02  7.379304042E-01 
        79  8.598423723E-03 -1.649999983E-03  9.865066297E-04  2.022882648E-03  3.793652620E+01  5.942599911E+02  7.379858798E-01 
        80  1.153309208E-02 -1.650000032E-03  9.865404178E-04  2.017363482E-03  3.952157845E+01  5.942600088E+02  7.396215692E-01 
        81  7.573036225E-03 -1.650000030E-03  9.866765862E-04  2.022842907E-03  3.764717569E+01  5.942600088E+02  7.378819594E-01 
        82  5.783215100E-03 -1.650000004E-03  9.869826635E-04  2.022812264E-03  3.729845277E+01  5.942600000E+02  7.377992673E-01 
        83  6.035506259E-03 -1.649999949E-03  9.869375075E-04  2.022814889E-03  3.733595025E+01  5.942599823E+02  7.378056604E-01 
        84  6.236595952E-03 -1.650000002E-03  9.869024133E-04  2.022817898E-03  3.737198319E+01  5.942600000E+02  7.378134673E-01 
        85  6.880806203E-03 -1.649999944E-03  9.867931445E-04  2.022827159E-03  3.749131141E+01  5.942599823E+02  7.378386946E-01 
        86  1.172947215E-02 -1.650000029E-03  9.869723181E-04  2.011956156E-03  3.970885142E+01  5.942600088E+02  7.399375318E-01 
        87  4.832561986E-03 -1.649999941E-03  9.871570102E-04  2.022803444E-03  3.716821832E+01  5.942599823E+02  7.377781459E-01 
        88  5.159606270E-03 -1.650000004E-03  9.870976822E-04  2.022806061E-03  3.720951575E+01  5.942600000E+02  7.377843383E-01 
        89  3.947734035E-03 -1.649999955E-03  9.873277149E-04  2.022797083E-03  3.707388895E+01  5.942599823E+02  7.377648813E-01 
        90  4.232942892E-03 -1.649999946E-03  9.872707921E-04  2.022798977E-03  3.710048730E+01  5.942599823E+02  7.377682397E-01 
        91  1.189310817E-02 -1.649999954E-03  9.873330752E-04  2.002486761E-03  3.988570319E+01  5.942599822E+02  7.402325695E-01 
        92  2.914795121E-03 -1.649999999E-03  9.875323253E-04  2.022790921E-03  3.699246447E+01  5.942600000E+02  7.377549974E-01 
        93  3.058937451E-03 -1.650000039E-03  9.875036176E-04  2.022791735E-03  3.700117504E+01  5.942600133E+02  7.377559436E-01 
        94  3.121859929E-03 -1.649999985E-03  9.874906111E-04  2.022792042E-03  3.700564125E+01  5.942599956E+02  7.377564289E-01 
        95  1.285714191E-03 -1.649999950E-03  9.878538017E-04  2.022782750E-03  3.691643946E+01  5.942599823E+02  7.377466313E-01 
        96  1.816924899E-03 -1.650000049E-03  9.877480907E-04  2.022785341E-03  3.693461891E+01  5.942600177E+02  7.377488037E-01 
        97  2.170191834E-03 -1.650000044E-03  9.876810309E-04  2.022787024E-03  3.695045452E+01  5.942600177E+02  7.377505176E-01 
        98  1.202946298E-02 -1.649999953E-03  9.876343321E-04  1.985099326E-03  4.004825342E+01  5.942599822E+02  7.404478519E-01 
        99  1.214308635E-02 -1.649999988E-03  9.878858045E-04  1.958234887E-03  4.018649791E+01  5.942600000E+02  7.401179243E-01 
       100 -3.542577826E-04 -1.650000007E-03  9.881497301E-04  2.022776469E-03  3.689665243E+01  5.942600000E+02  7.377443839E-01 
       101  2.031021205E-04 -1.649999952E-03  9.880507533E-04  2.022778372E-03  3.689640101E+01  5.942599823E+02  7.377444418E-01 
       102  4.512136878E-04 -1.649999952E-03  9.880065915E-04  2.022779280E-03  3.689740266E+01  5.942599823E+02  7.377443737E-01 
       103  5.803136392E-04 -1.649999997E-03  9.879823968E-04  2.022779885E-03  3.689959352E+01  5.942600000E+02  7.377449222E-01 
       104  1.223776813E-02 -1.650000009E-03  9.880956075E-04  2.279314752E-03  4.029639841E+01  5.942600009E+02  7.332414875E-01 
       105 -1.968786396E-03 -1.649999951E-03  9.883890366E-04  2.022772317E-03  3.693478388E+01  5.942599823E+02  7.377497710E-01 
       106 -1.652977683E-03 -1.649999996E-03  9.883474365E-04  2.022772990E-03  3.692319434E+01  5.942600000E+02  7.377483149E-01 
       107 -1.155706233E-03 -1.649999999E-03  9.882811823E-04  2.022774075E-03  3.690892387E+01  5.942600000E+02  7.377462250E-01 
       108 -7.328599352E-04 -1.649999953E-03  9.882105507E-04  2.022775269E-03  3.690117541E+01  5.942599823E+02  7.377450386E-01 
       109  1.231666688E-02 -1.649999993E-03  9.882706246E-04  6.944279740E-03  4.036707787E+01  5.942600062E+02  6.842297748E-01 
       110 -1.238224737E-02 -1.650000051E-03  9.884166253E-04  8.076429003E-03  4.037802712E+01  5.942600587E+02  0.000000000E+00 
       111 -1.231697450E-02 -1.649999999E-03  9.884940960E-04  7.022210534E-03  4.036516394E+01  5.942600060E+02  6.860579302E-01 
       112 -2.327584992E-03 -1.649999952E-03  9.884358288E-04  2.022771746E-03  3.695241061E+01  5.942599823E+02  7.377518781E-01 
       113  1.238241434E-02 -1.650000051E-03  9.884166253E-04  8.004284453E-03  4.037805821E+01  5.942600588E+02  0.000000000E+00 
       114 -1.223864467E-02 -1.650000051E-03  9.885870638E-04  2.291272304E-03  4.029204973E+01  5.942600186E+02  7.332796190E-01 
       115 -1.214464338E-02 -1.649999994E-03  9.886984689E-04  1.954290915E-03  4.018117545E+01  5.942600000E+02  7.399365647E-01 
       116 -4.517199587E-03 -1.649999963E-03  9.887236864E-04  2.022770624E-03  3.712072580E+01  5.942599867E+02  7.377735647E-01 
       117 -4.414670316E-03 -1.650000033E-03  9.887104562E-04  2.022770619E-03  3.711014811E+01  5.942600133E+02  7.377720466E-01 
       118 -3.651595001E-03 -1.650000048E-03  9.886098026E-04  2.022770567E-03  3.704094632E+01  5.942600177E+02  7.377626214E-01 
       119 -3.094823677E-03 -1.650000049E-03  9.885372614E-04  2.022770863E-03  3.699798536E+01  5.942600177E+02  7.377572873E-01 
       120 -2.793029229E-03 -1.649999951E-03  9.884973581E-04  2.022771067E-03  3.697808611E+01  5.942599823E+02  7.377549062E-01 
       121 -1.203183536E-02 -1.650000008E-03  9.888320552E-04  1.982158543E-03  4.004299399E+01  5.942599999E+02  7.402819037E-01 
       122 -5.373331867E-03 -1.650000002E-03  9.888373881E-04  2.022772510E-03  3.722683666E+01  5.942600000E+02  7.377903399E-01 
       123 -4.706021831E-03 -1.649999978E-03  9.887486688E-04  2.022771037E-03  3.714339765E+01  5.942599911E+02  7.377772033E-01 
       124 -1.189645587E-02 -1.650000052E-03  9.889921867E-04  2.000826863E-03  3.988050950E+01  5.942600176E+02  7.400930959E-01 
       125 -5.769750150E-03 -1.650000058E-03  9.888914969E-04  2.022774273E-03  3.728511814E+01  5.942600177E+02  7.378008386E-01 
       126 -7.038392819E-03 -1.649999978E-03  9.890637268E-04  2.022784612E-03  3.751119113E+01  5.942599911E+02  7.378495276E-01 
       127 -6.777981764E-03 -1.650000004E-03  9.890279205E-04  2.022782177E-03  3.746126359E+01  5.942600000E+02  7.378384246E-01 
       128 -6.208507374E-03 -1.649999986E-03  9.889500532E-04  2.022776735E-03  3.735492565E+01  5.942600000E+02  7.378140989E-01 
       129 -1.173398426E-02 -1.649999973E-03  9.891839625E-04  2.010930870E-03  3.970343496E+01  5.942599911E+02  7.398248140E-01 
       130 -7.317166953E-03 -1.650000004E-03  9.891033433E-04  2.022789704E-03  3.757585964E+01  5.942600000E+02  7.378677826E-01 
       131 -8.713682192E-03 -1.650000053E-03  9.893002256E-04  2.022833935E-03  3.796256505E+01  5.942600177E+02  7.380039182E-01 
       132 -8.332633425E-03 -1.649999946E-03  9.892454469E-04  2.022818921E-03  3.784679918E+01  5.942599823E+02  7.379597874E-01 
       133 -7.874710432E-03 -1.649999955E-03  9.891805000E-04  2.022801193E-03  3.771265413E+01  5.942599823E+02  7.379076953E-01 
       134 -1.153899587E-02 -1.649999945E-03  9.894136741E-04  2.016690138E-03  3.951498073E+01  5.942599822E+02  7.395354945E-01 
       135 -9.733691370E-03 -1.650000000E-03  9.894490791E-04  2.022844620E-03  3.837516390E+01  5.942600000E+02  7.382604427E-01 
       136 -9.556210586E-03 -1.650000046E-03  9.894235574E-04  2.022883034E-03  3.828550370E+01  5.942600177E+02  7.381836900E-01 
       137 -9.266405885E-03 -1.650000050E-03  9.893819229E-04  2.022865730E-03  3.817212179E+01  5.942600177E+02  7.381200969E-01 
       138 -1.041736222E-02 -1.649999955E-03  9.895527119E-04  2.022705970E-03  3.872765546E+01  5.942599823E+02  7.385574999E-01 
       139 -1.130497527E-02 -1.649999952E-03  9.896886455E-04  2.019926898E-03  3.931477142E+01  5.942599822E+02  7.392439747E-01 
       140 -1.104863784E-02 -1.650000007E-03  9.896471749E-04  2.020735586E-03  3.914234997E+01  5.942599999E+02  7.390428551E-01 
       141  1.110265300E-02 -1.649999997E-03  1.972140752E-03  2.006339309E-03  3.844147573E+01  5.942600000E+02  7.404887048E-01 
       142  1.129766783E-02 -1.649999997E-03  1.972047450E-03  2.004947500E-03  3.850291112E+01  5.942600000E+02  7.407631670E-01 
       143  1.038834619E-02 -1.649999990E-03  1.972439484E-03  2.011253486E-03  3.822010939E+01  5.942600000E+02  7.395213746E-01 
       144  9.996815845E-03 -1.649999998E-03  1.972603110E-03  2.011496610E-03  3.810166114E+01  5.942600000E+02  7.392043147E-01 
       145  9.485811853E-03 -1.649999993E-03  1.972800993E-03  2.011793485E-03  3.795119113E+01  5.942600000E+02  7.388033098E-01 
       146  8.598398070E-03 -1.649999998E-03  1.973137196E-03  2.011719289E-03  3.771374307E+01  5.942600000E+02  7.384279273E-01 
       147  8.805409659E-03 -1.650000022E-03  1.973060752E-03  2.011735561E-03  3.776748333E+01  5.942600088E+02  7.385134012E-01 
       148  1.153328860E-02 -1.649999970E-03  1.973080771E-03  1.998226764E-03  3.856780999E+01  5.942599911E+02  7.412442990E-01 
       149  8.091608969E-03 -1.650000003E-03  1.973322042E-03  2.011683167E-03  3.759791217E+01  5.942600000E+02  7.383071798E-01 
       150  7.572601876E-03 -1.650000025E-03  1.973515861E-03  2.011651440E-03  3.748694260E+01  5.942600088E+02  7.382006083E-01 
       151  7.730469083E-03 -1.650000002E-03  1.973458047E-03  2.011658011E-03  3.751725073E+01  5.942600000E+02  7.382232697E-01 
