nodenumber     x-coordinate     y-coordinate     z-coordinate turb-kinetic-energy         pressure      temperature velocity-magnitude 
         1 -1.238224696E-02 -1.650000007E-03  0.000000000E+00  4.535952502E-03  4.369157510E+01  5.942600179E+02  0.000000000E+00 
         2 -1.231646687E-02 -1.649999949E-03  0.000000000E+00  2.192383170E-03  4.362366751E+01  5.942599823E+02  7.646146053E-01 
         3 -1.223752875E-02 -1.650000008E-03  0.000000000E+00  2.192383236E-03  4.345338853E+01  5.942600000E+02  7.646146281E-01 
         4 -1.214279805E-02 -1.649999951E-03  0.000000000E+00  2.192383170E-03  4.323238492E+01  5.942599823E+02  7.646146053E-01 
         5 -1.202911553E-02 -1.649999951E-03  0.000000000E+00  2.192383170E-03  4.297675722E+01  5.942599823E+02  7.646146053E-01 
         6 -1.189268779E-02 -1.650000001E-03  0.000000000E+00  2.192383236E-03  4.269444139E+01  5.942600000E+02  7.646146281E-01 
         7 -1.172896070E-02 -1.650000028E-03  0.000000000E+00  2.192383268E-03  4.239715893E+01  5.942600089E+02  7.646146395E-01 
         8 -1.153246726E-02 -1.649999968E-03  0.000000000E+00  2.192383203E-03  4.208787512E+01  5.942599911E+02  7.646146167E-01 
         9 -1.129664480E-02 -1.649999999E-03  0.000000000E+00  2.192383236E-03  4.162313099E+01  5.942600000E+02  7.646146281E-01 
        10 -1.104180182E-02 -1.649999952E-03  0.000000000E+00  2.192383170E-03  4.143083298E+01  5.942599823E+02  7.646146053E-01 
        11 -1.040965475E-02 -1.650000037E-03  0.000000000E+00  2.192383301E-03  4.096489152E+01  5.942600177E+02  7.646146509E-01 
        12 -9.727797567E-03 -1.649999974E-03  0.000000000E+00  2.192383203E-03  4.050341132E+01  5.942599911E+02  7.646146167E-01 
        13 -9.549135039E-03 -1.650000016E-03  0.000000000E+00  2.192383268E-03  4.038405630E+01  5.942600089E+02  7.646146395E-01 
        14 -9.257402967E-03 -1.649999996E-03  0.000000000E+00  2.192383236E-03  4.024501602E+01  5.942600000E+02  7.646146281E-01 
        15 -8.707201624E-03 -1.650000004E-03  0.000000000E+00  2.192383236E-03  3.998947868E+01  5.942600000E+02  7.646146281E-01 
        16 -8.327874969E-03 -1.650000002E-03  0.000000000E+00  2.192383236E-03  3.985175465E+01  5.942600000E+02  7.646146281E-01 
        17 -7.868819436E-03 -1.650000009E-03  0.000000000E+00  2.192383236E-03  3.969004469E+01  5.942600000E+02  7.646146281E-01 
        18 -7.309914944E-03 -1.650000005E-03  0.000000000E+00  2.192383236E-03  3.953100991E+01  5.942600000E+02  7.646146281E-01 
        19 -7.033056079E-03 -1.649999952E-03  0.000000000E+00  2.192383170E-03  3.945693023E+01  5.942599823E+02  7.646146053E-01 
        20 -6.774404682E-03 -1.650000049E-03  0.000000000E+00  2.192383301E-03  3.940133591E+01  5.942600177E+02  7.646146509E-01 
        21 -6.203718579E-03 -1.649999993E-03  0.000000000E+00  2.192383236E-03  3.928300660E+01  5.942600000E+02  7.646146281E-01 
        22 -5.764059055E-03 -1.650000057E-03  0.000000000E+00  2.192383301E-03  3.920399454E+01  5.942600177E+02  7.646146509E-01 
        23 -5.369046210E-03 -1.650000008E-03  0.000000000E+00  2.192383236E-03  3.913915099E+01  5.942600000E+02  7.646146281E-01 
        24 -4.703991919E-03 -1.649999998E-03  0.000000000E+00  2.192383236E-03  3.904674114E+01  5.942600000E+02  7.646146281E-01 
        25 -4.513416810E-03 -1.649999963E-03  0.000000000E+00  2.192383187E-03  3.902123257E+01  5.942599867E+02  7.646146110E-01 
        26 -4.409949101E-03 -1.650000002E-03  0.000000000E+00  2.192383236E-03  3.900946440E+01  5.942600000E+02  7.646146281E-01 
        27 -3.648226494E-03 -1.649999989E-03  0.000000000E+00  2.192383236E-03  3.893322177E+01  5.942600000E+02  7.646146281E-01 
        28 -3.090814824E-03 -1.649999990E-03  0.000000000E+00  2.192383236E-03  3.888523921E+01  5.942600000E+02  7.646146281E-01 
        29 -2.790049428E-03 -1.649999975E-03  0.000000000E+00  2.192383203E-03  3.886334505E+01  5.942599911E+02  7.646146167E-01 
        30 -2.326109559E-03 -1.650000046E-03  0.000000000E+00  2.192383301E-03  3.883560993E+01  5.942600177E+02  7.646146509E-01 
        31 -1.966101120E-03 -1.650000005E-03  0.000000000E+00  2.192383236E-03  3.881640823E+01  5.942600000E+02  7.646146281E-01 
        32 -1.649288649E-03 -1.650000004E-03  0.000000000E+00  2.192383236E-03  3.880407958E+01  5.942600000E+02  7.646146281E-01 
        33 -1.153324779E-03 -1.650000049E-03  0.000000000E+00  2.192383301E-03  3.878935283E+01  5.942600177E+02  7.646146509E-01 
        34 -7.314993435E-04 -1.649999992E-03  0.000000000E+00  2.192383236E-03  3.878108098E+01  5.942600000E+02  7.646146281E-01 
        35 -3.521276869E-04 -1.650000043E-03  0.000000000E+00  2.192383301E-03  3.877642678E+01  5.942600177E+02  7.646146509E-01 
        36  2.062356178E-04 -1.650000004E-03  0.000000000E+00  2.192383236E-03  3.877609634E+01  5.942600000E+02  7.646146281E-01 
        37  4.531226353E-04 -1.649999970E-03  0.000000000E+00  2.192383203E-03  3.877728805E+01  5.942599911E+02  7.646146167E-01 
        38  5.816147412E-04 -1.650000031E-03  0.000000000E+00  2.192383268E-03  3.877965566E+01  5.942600089E+02  7.646146395E-01 
        39  1.287381078E-03 -1.649999940E-03  0.000000000E+00  2.192383170E-03  3.879867790E+01  5.942599823E+02  7.646146053E-01 
        40  1.817906072E-03 -1.650000045E-03  0.000000000E+00  2.192383301E-03  3.881865819E+01  5.942600177E+02  7.646146509E-01 
        41  2.171618469E-03 -1.649999958E-03  0.000000000E+00  2.192383170E-03  3.883607380E+01  5.942599823E+02  7.646146053E-01 
        42  2.917015337E-03 -1.650000026E-03  0.000000000E+00  2.192383268E-03  3.888263903E+01  5.942600089E+02  7.646146395E-01 
        43  3.060138752E-03 -1.649999982E-03  0.000000000E+00  2.192383211E-03  3.889219689E+01  5.942599934E+02  7.646146195E-01 
        44  3.122627803E-03 -1.650000012E-03  0.000000000E+00  2.192383252E-03  3.889722130E+01  5.942600044E+02  7.646146338E-01 
        45  3.948750735E-03 -1.649999946E-03  0.000000000E+00  2.192383170E-03  3.897382585E+01  5.942599823E+02  7.646146053E-01 
        46  4.233552192E-03 -1.650000005E-03  0.000000000E+00  2.192383236E-03  3.900228965E+01  5.942600000E+02  7.646146281E-01 
        47  4.833507872E-03 -1.649999945E-03  0.000000000E+00  2.192383170E-03  3.907566582E+01  5.942599823E+02  7.646146053E-01 
        48  5.160210487E-03 -1.649999946E-03  0.000000000E+00  2.192383170E-03  3.912089656E+01  5.942599823E+02  7.646146053E-01 
        49  5.783248106E-03 -1.650000052E-03  0.000000000E+00  2.192383301E-03  3.922319628E+01  5.942600177E+02  7.646146509E-01 
        50  6.035984549E-03 -1.649999976E-03  0.000000000E+00  2.192383203E-03  3.926708798E+01  5.942599911E+02  7.646146167E-01 
        51  6.237400109E-03 -1.650000022E-03  0.000000000E+00  2.192383268E-03  3.930717373E+01  5.942600089E+02  7.646146395E-01 
        52  6.881112835E-03 -1.650000056E-03  0.000000000E+00  2.192383301E-03  3.944129268E+01  5.942600177E+02  7.646146509E-01 
        53  7.573470319E-03 -1.649999997E-03  0.000000000E+00  2.192383236E-03  3.961934112E+01  5.942600000E+02  7.646146281E-01 
        54  7.730792309E-03 -1.650000003E-03  0.000000000E+00  2.192383236E-03  3.966120427E+01  5.942600000E+02  7.646146281E-01 
        55  8.090815089E-03 -1.650000001E-03  0.000000000E+00  2.192383236E-03  3.978326726E+01  5.942600000E+02  7.646146281E-01 
        56  8.598449542E-03 -1.650000003E-03  0.000000000E+00  2.192383236E-03  3.995956486E+01  5.942600000E+02  7.646146281E-01 
        57  8.805739513E-03 -1.650000003E-03  0.000000000E+00  2.192383236E-03  4.005389951E+01  5.942600000E+02  7.646146281E-01 
        58  9.485623847E-03 -1.649999997E-03  0.000000000E+00  2.192383236E-03  4.037522088E+01  5.942600000E+02  7.646146281E-01 
        59  9.996717122E-03 -1.650000053E-03  0.000000000E+00  2.192383301E-03  4.071120945E+01  5.942600177E+02  7.646146509E-01 
        60  1.038796781E-02 -1.650000000E-03  0.000000000E+00  2.192383236E-03  4.097984614E+01  5.942600000E+02  7.646146281E-01 
        61  1.110225324E-02 -1.650000050E-03  0.000000000E+00  2.192383301E-03  4.151258553E+01  5.942600177E+02  7.646146509E-01 
        62  1.129715473E-02 -1.650000051E-03  0.000000000E+00  2.192383301E-03  4.166101774E+01  5.942600177E+02  7.646146509E-01 
        63  1.153289457E-02 -1.649999949E-03  0.000000000E+00  2.192383170E-03  4.213637498E+01  5.942599823E+02  7.646146053E-01 
        64  1.172932302E-02 -1.649999996E-03  0.000000000E+00  2.192383236E-03  4.245542058E+01  5.942600000E+02  7.646146281E-01 
        65  1.189299876E-02 -1.650000052E-03  0.000000000E+00  2.192383301E-03  4.276362415E+01  5.942600177E+02  7.646146509E-01 
        66  1.202938442E-02 -1.649999949E-03  0.000000000E+00  2.192383170E-03  4.305799493E+01  5.942599823E+02  7.646146053E-01 
        67  1.214303390E-02 -1.650000044E-03  0.000000000E+00  2.192383301E-03  4.332550527E+01  5.942600177E+02  7.646146509E-01 
        68  1.223773642E-02 -1.650000012E-03  0.000000000E+00  2.192383236E-03  4.355742875E+01  5.942600000E+02  7.646146281E-01 
        69  1.231665286E-02 -1.650000046E-03  0.000000000E+00  2.192383301E-03  4.373611210E+01  5.942600177E+02  7.646146509E-01 
        70  1.238241385E-02 -1.649999998E-03  0.000000000E+00  4.507299382E-03  4.380694298E+01  5.942600179E+02  0.000000000E+00 
        71  1.110245300E-02 -1.649999996E-03  9.860657205E-04  2.171309706E-03  4.119046386E+01  5.942599999E+02  7.661312708E-01 
        72  1.129741118E-02 -1.649999994E-03  9.860237298E-04  2.170723875E-03  4.132995080E+01  5.942599999E+02  7.662995120E-01 
        73  1.038815708E-02 -1.649999987E-03  9.861987235E-04  2.173375679E-03  4.069463810E+01  5.942600000E+02  7.655405933E-01 
        74  8.805574705E-03 -1.650000021E-03  9.864727040E-04  2.173427834E-03  3.993677677E+01  5.942600088E+02  7.649912676E-01 
        75  9.485717905E-03 -1.650000014E-03  9.863583903E-04  2.173480764E-03  4.021336671E+01  5.942600000E+02  7.651370195E-01 
        76  9.996766092E-03 -1.649999943E-03  9.862710097E-04  2.173423159E-03  4.048263582E+01  5.942599823E+02  7.653621825E-01 
        77  7.730630904E-03 -1.650000039E-03  9.866502961E-04  2.173374581E-03  3.958693695E+01  5.942600133E+02  7.648518790E-01 
        78  8.091212126E-03 -1.649999999E-03  9.865892570E-04  2.173390109E-03  3.969705542E+01  5.942600000E+02  7.648912997E-01 
        79  8.598423723E-03 -1.649999983E-03  9.865066297E-04  2.173412511E-03  3.985561160E+01  5.942599911E+02  7.649481520E-01 
        80  1.153309208E-02 -1.650000032E-03  9.865404178E-04  2.167495844E-03  4.154028642E+01  5.942600088E+02  7.666233894E-01 
        81  7.573036225E-03 -1.650000030E-03  9.866765862E-04  2.173370697E-03  3.954796770E+01  5.942600088E+02  7.648416455E-01 
        82  5.783215100E-03 -1.650000004E-03  9.869826635E-04  2.173338331E-03  3.917714711E+01  5.942600000E+02  7.647568081E-01 
        83  6.035506259E-03 -1.649999949E-03  9.869375075E-04  2.173341111E-03  3.921702915E+01  5.942599823E+02  7.647633748E-01 
        84  6.236595952E-03 -1.650000002E-03  9.869024133E-04  2.173344292E-03  3.925534899E+01  5.942600000E+02  7.647713867E-01 
        85  6.880806203E-03 -1.649999944E-03  9.867931445E-04  2.173354082E-03  3.938223510E+01  5.942599823E+02  7.647972779E-01 
        86  1.172947215E-02 -1.650000029E-03  9.869723181E-04  2.161720523E-03  4.173917881E+01  5.942600088E+02  7.669468790E-01 
        87  4.832561986E-03 -1.649999941E-03  9.871570102E-04  2.173328976E-03  3.903861760E+01  5.942599823E+02  7.647351060E-01 
        88  5.159606270E-03 -1.650000004E-03  9.870976822E-04  2.173331755E-03  3.908254680E+01  5.942600000E+02  7.647414720E-01 
        89  3.947734035E-03 -1.649999955E-03  9.873277149E-04  2.173322214E-03  3.893822218E+01  5.942599823E+02  7.647214640E-01 
        90  4.232942892E-03 -1.649999946E-03  9.872707921E-04  2.173324229E-03  3.896654186E+01  5.942599823E+02  7.647249204E-01 
        91  1.189310817E-02 -1.649999954E-03  9.873330752E-04  2.151623252E-03  4.192698669E+01  5.942599822E+02  7.672488735E-01 
        92  2.914795121E-03 -1.649999999E-03  9.875323253E-04  2.173315646E-03  3.885146087E+01  5.942600000E+02  7.647112882E-01 
        93  3.058937451E-03 -1.650000039E-03  9.875036176E-04  2.173316516E-03  3.886075731E+01  5.942600133E+02  7.647122629E-01 
        94  3.121859929E-03 -1.649999985E-03  9.874906111E-04  2.173316843E-03  3.886551864E+01  5.942599956E+02  7.647127628E-01 
        95  1.285714191E-03 -1.649999950E-03  9.878538017E-04  2.173306907E-03  3.877013580E+01  5.942599823E+02  7.647026710E-01 
        96  1.816924899E-03 -1.650000049E-03  9.877480907E-04  2.173309683E-03  3.878965176E+01  5.942600177E+02  7.647049065E-01 
        97  2.170191834E-03 -1.650000044E-03  9.876810309E-04  2.173311484E-03  3.880659963E+01  5.942600177E+02  7.647066742E-01 
        98  1.202946298E-02 -1.649999953E-03  9.876343321E-04  2.133122800E-03  4.209965641E+01  5.942599822E+02  7.674694619E-01 
        99  1.214308635E-02 -1.649999988E-03  9.878858045E-04  2.104168030E-03  4.224660605E+01  5.942600000E+02  7.671372559E-01 
       100 -3.542577826E-04 -1.650000007E-03  9.881497301E-04  2.173300157E-03  3.874834321E+01  5.942600000E+02  7.647003547E-01 
       101  2.031021205E-04 -1.649999952E-03  9.880507533E-04  2.173302207E-03  3.874836459E+01  5.942599823E+02  7.647004149E-01 
       102  4.512136878E-04 -1.649999952E-03  9.880065915E-04  2.173303185E-03  3.874955381E+01  5.942599823E+02  7.647003591E-01 
       103  5.803136392E-04 -1.649999997E-03  9.879823968E-04  2.173303834E-03  3.875193898E+01  5.942600000E+02  7.647009128E-01 
       104  1.223776813E-02 -1.650000009E-03  9.880956075E-04  2.436589519E-03  4.236351931E+01  5.942600009E+02  7.601210923E-01 
       105 -1.968786396E-03 -1.649999951E-03  9.883890366E-04  2.173295657E-03  3.878784867E+01  5.942599823E+02  7.647059192E-01 
       106 -1.652977683E-03 -1.649999996E-03  9.883474365E-04  2.173296391E-03  3.877574711E+01  5.942600000E+02  7.647044065E-01 
       107 -1.155706233E-03 -1.649999999E-03  9.882811823E-04  2.173297569E-03  3.876090948E+01  5.942600000E+02  7.647022232E-01 
       108 -7.328599352E-04 -1.649999953E-03  9.882105507E-04  2.173298862E-03  3.875293044E+01  5.942599823E+02  7.647010213E-01 
       109  1.231666688E-02 -1.649999993E-03  9.882706246E-04  7.382543119E-03  4.243869384E+01  5.942600066E+02  7.098347898E-01 
       110 -1.238224737E-02 -1.650000051E-03  9.884166253E-04  8.583212498E-03  4.244347414E+01  5.942600617E+02  0.000000000E+00 
       111 -1.231697450E-02 -1.649999999E-03  9.884940960E-04  7.464920112E-03  4.242980258E+01  5.942600064E+02  7.117205795E-01 
       112 -2.327584992E-03 -1.649999952E-03  9.884358288E-04  2.173295030E-03  3.880631877E+01  5.942599823E+02  7.647081062E-01 
       113  1.238241434E-02 -1.650000051E-03  9.884166253E-04  8.506952199E-03  4.245037023E+01  5.942600618E+02  0.000000000E+00 
       114 -1.223864467E-02 -1.650000051E-03  9.885870638E-04  2.448959689E-03  4.235204494E+01  5.942600186E+02  7.601592887E-01 
       115 -1.214464338E-02 -1.649999994E-03  9.886984689E-04  2.099884124E-03  4.223405067E+01  5.942600000E+02  7.669497010E-01 
       116 -4.517199587E-03 -1.649999963E-03  9.887236864E-04  2.173293691E-03  3.898345021E+01  5.942599867E+02  7.647305780E-01 
       117 -4.414670316E-03 -1.650000033E-03  9.887104562E-04  2.173293694E-03  3.897229175E+01  5.942600133E+02  7.647290074E-01 
       118 -3.651595001E-03 -1.650000048E-03  9.886098026E-04  2.173293693E-03  3.889937169E+01  5.942600177E+02  7.647192450E-01 
       119 -3.094823677E-03 -1.650000049E-03  9.885372614E-04  2.173294044E-03  3.885416209E+01  5.942600177E+02  7.647137193E-01 
       120 -2.793029229E-03 -1.649999951E-03  9.884973581E-04  2.173294279E-03  3.883325317E+01  5.942599823E+02  7.647112505E-01 
       121 -1.203183536E-02 -1.650000008E-03  9.888320552E-04  2.129996903E-03  4.208717314E+01  5.942599999E+02  7.672968466E-01 
       122 -5.373331867E-03 -1.650000002E-03  9.888373881E-04  2.173295626E-03  3.909552783E+01  5.942600000E+02  7.647479287E-01 
       123 -4.706021831E-03 -1.649999978E-03  9.887486688E-04  2.173294114E-03  3.900739502E+01  5.942599911E+02  7.647343415E-01 
       124 -1.189645587E-02 -1.650000052E-03  9.889921867E-04  2.149856452E-03  4.191457588E+01  5.942600176E+02  7.671041163E-01 
       125 -5.769750150E-03 -1.650000058E-03  9.888914969E-04  2.173297466E-03  3.915717463E+01  5.942600177E+02  7.647587753E-01 
       126 -7.038392819E-03 -1.649999978E-03  9.890637268E-04  2.173308319E-03  3.939664630E+01  5.942599911E+02  7.648089471E-01 
       127 -6.777981764E-03 -1.650000004E-03  9.890279205E-04  2.173305760E-03  3.934373774E+01  5.942600000E+02  7.647975104E-01 
       128 -6.208507374E-03 -1.649999986E-03  9.889500532E-04  2.173300039E-03  3.923104837E+01  5.942600000E+02  7.647724599E-01 
       129 -1.173398426E-02 -1.649999973E-03  9.891839625E-04  2.160627448E-03  4.172655213E+01  5.942599911E+02  7.668299876E-01 
       130 -7.317166953E-03 -1.650000004E-03  9.891033433E-04  2.173313680E-03  3.946527774E+01  5.942600000E+02  7.648276955E-01 
       131 -8.713682192E-03 -1.650000053E-03  9.893002256E-04  2.173360137E-03  3.987603960E+01  5.942600177E+02  7.649672221E-01 
       132 -8.332633425E-03 -1.649999946E-03  9.892454469E-04  2.173344375E-03  3.975301907E+01  5.942599823E+02  7.649220221E-01 
       133 -7.874710432E-03 -1.649999955E-03  9.891805000E-04  2.173325772E-03  3.961047390E+01  5.942599823E+02  7.648686700E-01 
       134 -1.153899587E-02 -1.649999945E-03  9.894136741E-04  2.166777095E-03  4.152642318E+01  5.942599822E+02  7.665340982E-01 
       135 -9.733691370E-03 -1.650000000E-03  9.894490791E-04  2.173368806E-03  4.031481477E+01  5.942600000E+02  7.652295961E-01 
       136 -9.556210586E-03 -1.650000046E-03  9.894235574E-04  2.173410869E-03  4.021946551E+01  5.942600177E+02  7.651510911E-01 
       137 -9.266405885E-03 -1.650000050E-03  9.893819229E-04  2.173392994E-03  4.009889414E+01  5.942600177E+02  7.650860462E-01 
       138 -1.041736222E-02 -1.649999955E-03  9.895527119E-04  2.173216714E-03  4.068968915E+01  5.942599822E+02  7.655334220E-01 
       139 -1.130497527E-02 -1.649999952E-03  9.896886455E-04  2.170237171E-03  4.131375214E+01  5.942599822E+02  7.662358153E-01 
       140 -1.104863784E-02 -1.650000007E-03  9.896471749E-04  2.171104209E-03  4.113047988E+01  5.942599999E+02  7.660300345E-01 
       141  1.110265300E-02 -1.649999997E-03  1.972140752E-03  2.155643549E-03  4.039320092E+01  5.942600000E+02  7.675118202E-01 
       142  1.129766783E-02 -1.649999997E-03  1.972047450E-03  2.154152694E-03  4.045859481E+01  5.942600000E+02  7.677928792E-01 
       143  1.038834619E-02 -1.649999990E-03  1.972439484E-03  2.160907663E-03  4.015756758E+01  5.942600000E+02  7.665212512E-01 
       144  9.996815845E-03 -1.649999998E-03  1.972603110E-03  2.161170836E-03  4.003154273E+01  5.942600000E+02  7.661965386E-01 
       145  9.485811853E-03 -1.649999993E-03  1.972800993E-03  2.161492251E-03  3.987144154E+01  5.942600000E+02  7.657858538E-01 
       146  8.598398070E-03 -1.649999998E-03  1.973137196E-03  2.161415757E-03  3.961889062E+01  5.942600000E+02  7.654012887E-01 
       147  8.805409659E-03 -1.650000022E-03  1.973060752E-03  2.161432516E-03  3.967605231E+01  5.942600088E+02  7.654888531E-01 
       148  1.153328860E-02 -1.649999970E-03  1.973080771E-03  2.146966758E-03  4.052770732E+01  5.942599911E+02  7.682854713E-01 
       149  8.091608969E-03 -1.650000003E-03  1.973322042E-03  2.161377784E-03  3.949572094E+01  5.942600000E+02  7.652775205E-01 
       150  7.572601876E-03 -1.650000025E-03  1.973515861E-03  2.161344399E-03  3.937772375E+01  5.942600088E+02  7.651682647E-01 
       151  7.730469083E-03 -1.650000002E-03  1.973458047E-03  2.161351333E-03  3.940994612E+01  5.942600000E+02  7.651915107E-01 
