nodenumber     x-coordinate     y-coordinate     z-coordinate turb-kinetic-energy         pressure      temperature velocity-magnitude 
         1 -1.238224696E-02 -1.650000007E-03  0.000000000E+00  4.087856687E-03  4.025918025E+01  5.942600159E+02  0.000000000E+00 
         2 -1.231646687E-02 -1.649999949E-03  0.000000000E+00  1.949367152E-03  4.019760919E+01  5.942599823E+02  7.209932212E-01 
         3 -1.223752875E-02 -1.650000008E-03  0.000000000E+00  1.949367210E-03  4.004339829E+01  5.942600000E+02  7.209932426E-01 
         4 -1.214279805E-02 -1.649999951E-03  0.000000000E+00  1.949367152E-03  3.984343820E+01  5.942599823E+02  7.209932212E-01 
         5 -1.202911553E-02 -1.649999951E-03  0.000000000E+00  1.949367152E-03  3.961196160E+01  5.942599823E+02  7.209932212E-01 
         6 -1.189268779E-02 -1.650000001E-03  0.000000000E+00  1.949367210E-03  3.935601693E+01  5.942600000E+02  7.209932426E-01 
         7 -1.172896070E-02 -1.650000028E-03  0.000000000E+00  1.949367239E-03  3.908640378E+01  5.942600089E+02  7.209932534E-01 
         8 -1.153246726E-02 -1.649999968E-03  0.000000000E+00  1.949367181E-03  3.880595569E+01  5.942599911E+02  7.209932319E-01 
         9 -1.129664480E-02 -1.649999999E-03  0.000000000E+00  1.949367210E-03  3.838480778E+01  5.942600000E+02  7.209932426E-01 
        10 -1.104180182E-02 -1.649999952E-03  0.000000000E+00  1.949367152E-03  3.821069186E+01  5.942599823E+02  7.209932212E-01 
        11 -1.040965475E-02 -1.650000037E-03  0.000000000E+00  1.949367268E-03  3.778879854E+01  5.942600177E+02  7.209932641E-01 
        12 -9.727797567E-03 -1.649999974E-03  0.000000000E+00  1.949367181E-03  3.737120117E+01  5.942599911E+02  7.209932319E-01 
        13 -9.549135039E-03 -1.650000016E-03  0.000000000E+00  1.949367239E-03  3.726317990E+01  5.942600089E+02  7.209932534E-01 
        14 -9.257402967E-03 -1.649999996E-03  0.000000000E+00  1.949367210E-03  3.713733087E+01  5.942600000E+02  7.209932426E-01 
        15 -8.707201624E-03 -1.650000004E-03  0.000000000E+00  1.949367210E-03  3.690606567E+01  5.942600000E+02  7.209932426E-01 
        16 -8.327874969E-03 -1.650000002E-03  0.000000000E+00  1.949367210E-03  3.678127338E+01  5.942600000E+02  7.209932426E-01 
        17 -7.868819436E-03 -1.650000009E-03  0.000000000E+00  1.949367210E-03  3.663472970E+01  5.942600000E+02  7.209932426E-01 
        18 -7.309914944E-03 -1.650000005E-03  0.000000000E+00  1.949367210E-03  3.649034864E+01  5.942600000E+02  7.209932426E-01 
        19 -7.033056079E-03 -1.649999952E-03  0.000000000E+00  1.949367152E-03  3.642308318E+01  5.942599823E+02  7.209932212E-01 
        20 -6.774404682E-03 -1.650000049E-03  0.000000000E+00  1.949367268E-03  3.637248144E+01  5.942600177E+02  7.209932641E-01 
        21 -6.203718579E-03 -1.649999993E-03  0.000000000E+00  1.949367210E-03  3.626478277E+01  5.942600000E+02  7.209932426E-01 
        22 -5.764059055E-03 -1.650000057E-03  0.000000000E+00  1.949367268E-03  3.619270965E+01  5.942600177E+02  7.209932641E-01 
        23 -5.369046210E-03 -1.650000008E-03  0.000000000E+00  1.949367210E-03  3.613351454E+01  5.942600000E+02  7.209932426E-01 
        24 -4.703991919E-03 -1.649999998E-03  0.000000000E+00  1.949367210E-03  3.604896284E+01  5.942600000E+02  7.209932426E-01 
        25 -4.513416810E-03 -1.649999963E-03  0.000000000E+00  1.949367166E-03  3.602562072E+01  5.942599867E+02  7.209932265E-01 
        26 -4.409949101E-03 -1.650000002E-03  0.000000000E+00  1.949367210E-03  3.601483230E+01  5.942600000E+02  7.209932426E-01 
        27 -3.648226494E-03 -1.649999989E-03  0.000000000E+00  1.949367210E-03  3.594481093E+01  5.942600000E+02  7.209932426E-01 
        28 -3.090814824E-03 -1.649999990E-03  0.000000000E+00  1.949367210E-03  3.590065458E+01  5.942600000E+02  7.209932426E-01 
        29 -2.790049428E-03 -1.649999975E-03  0.000000000E+00  1.949367181E-03  3.588045682E+01  5.942599911E+02  7.209932319E-01 
        30 -2.326109559E-03 -1.650000046E-03  0.000000000E+00  1.949367268E-03  3.585480612E+01  5.942600177E+02  7.209932641E-01 
        31 -1.966101120E-03 -1.650000005E-03  0.000000000E+00  1.949367210E-03  3.583701704E+01  5.942600000E+02  7.209932426E-01 
        32 -1.649288649E-03 -1.650000004E-03  0.000000000E+00  1.949367210E-03  3.582553298E+01  5.942600000E+02  7.209932426E-01 
        33 -1.153324779E-03 -1.650000049E-03  0.000000000E+00  1.949367268E-03  3.581172003E+01  5.942600177E+02  7.209932641E-01 
        34 -7.314993435E-04 -1.649999992E-03  0.000000000E+00  1.949367210E-03  3.580385916E+01  5.942600000E+02  7.209932426E-01 
        35 -3.521276869E-04 -1.650000043E-03  0.000000000E+00  1.949367268E-03  3.579933228E+01  5.942600177E+02  7.209932641E-01 
        36  2.062356178E-04 -1.650000004E-03  0.000000000E+00  1.949367210E-03  3.579863777E+01  5.942600000E+02  7.209932426E-01 
        37  4.531226353E-04 -1.649999970E-03  0.000000000E+00  1.949367181E-03  3.579955191E+01  5.942599911E+02  7.209932319E-01 
        38  5.816147412E-04 -1.650000031E-03  0.000000000E+00  1.949367239E-03  3.580162084E+01  5.942600089E+02  7.209932534E-01 
        39  1.287381078E-03 -1.649999940E-03  0.000000000E+00  1.949367152E-03  3.581847022E+01  5.942599823E+02  7.209932212E-01 
        40  1.817906072E-03 -1.650000045E-03  0.000000000E+00  1.949367268E-03  3.583631642E+01  5.942600177E+02  7.209932641E-01 
        41  2.171618469E-03 -1.649999958E-03  0.000000000E+00  1.949367152E-03  3.585194741E+01  5.942599823E+02  7.209932212E-01 
        42  2.917015337E-03 -1.650000026E-03  0.000000000E+00  1.949367239E-03  3.589387986E+01  5.942600089E+02  7.209932534E-01 
        43  3.060138752E-03 -1.649999982E-03  0.000000000E+00  1.949367188E-03  3.590249431E+01  5.942599934E+02  7.209932346E-01 
        44  3.122627803E-03 -1.650000012E-03  0.000000000E+00  1.949367224E-03  3.590703081E+01  5.942600044E+02  7.209932480E-01 
        45  3.948750735E-03 -1.649999946E-03  0.000000000E+00  1.949367152E-03  3.597626623E+01  5.942599823E+02  7.209932212E-01 
        46  4.233552192E-03 -1.650000005E-03  0.000000000E+00  1.949367210E-03  3.600200989E+01  5.942600000E+02  7.209932426E-01 
        47  4.833507872E-03 -1.649999945E-03  0.000000000E+00  1.949367152E-03  3.606841966E+01  5.942599823E+02  7.209932212E-01 
        48  5.160210487E-03 -1.649999946E-03  0.000000000E+00  1.949367152E-03  3.610937874E+01  5.942599823E+02  7.209932212E-01 
        49  5.783248106E-03 -1.650000052E-03  0.000000000E+00  1.949367268E-03  3.620200854E+01  5.942600177E+02  7.209932641E-01 
        50  6.035984549E-03 -1.649999976E-03  0.000000000E+00  1.949367181E-03  3.624175574E+01  5.942599911E+02  7.209932319E-01 
        51  6.237400109E-03 -1.650000022E-03  0.000000000E+00  1.949367239E-03  3.627805462E+01  5.942600089E+02  7.209932534E-01 
        52  6.881112835E-03 -1.650000056E-03  0.000000000E+00  1.949367268E-03  3.639952704E+01  5.942600177E+02  7.209932641E-01 
        53  7.573470319E-03 -1.649999997E-03  0.000000000E+00  1.949367210E-03  3.656075201E+01  5.942600000E+02  7.209932426E-01 
        54  7.730792309E-03 -1.650000003E-03  0.000000000E+00  1.949367210E-03  3.659866457E+01  5.942600000E+02  7.209932426E-01 
        55  8.090815089E-03 -1.650000001E-03  0.000000000E+00  1.949367210E-03  3.670918349E+01  5.942600000E+02  7.209932426E-01 
        56  8.598449542E-03 -1.650000003E-03  0.000000000E+00  1.949367210E-03  3.686881394E+01  5.942600000E+02  7.209932426E-01 
        57  8.805739513E-03 -1.650000003E-03  0.000000000E+00  1.949367210E-03  3.695422079E+01  5.942600000E+02  7.209932426E-01 
        58  9.485623847E-03 -1.649999997E-03  0.000000000E+00  1.949367210E-03  3.724515058E+01  5.942600000E+02  7.209932426E-01 
        59  9.996717122E-03 -1.650000053E-03  0.000000000E+00  1.949367268E-03  3.754938329E+01  5.942600177E+02  7.209932641E-01 
        60  1.038796781E-02 -1.650000000E-03  0.000000000E+00  1.949367210E-03  3.779263749E+01  5.942600000E+02  7.209932426E-01 
        61  1.110225324E-02 -1.650000050E-03  0.000000000E+00  1.949367268E-03  3.827512898E+01  5.942600177E+02  7.209932641E-01 
        62  1.129715473E-02 -1.650000051E-03  0.000000000E+00  1.949367268E-03  3.840956466E+01  5.942600177E+02  7.209932641E-01 
        63  1.153289457E-02 -1.649999949E-03  0.000000000E+00  1.949367152E-03  3.884020221E+01  5.942599823E+02  7.209932212E-01 
        64  1.172932302E-02 -1.649999996E-03  0.000000000E+00  1.949367210E-03  3.912933622E+01  5.942600000E+02  7.209932426E-01 
        65  1.189299876E-02 -1.650000052E-03  0.000000000E+00  1.949367268E-03  3.940870660E+01  5.942600177E+02  7.209932641E-01 
        66  1.202938442E-02 -1.649999949E-03  0.000000000E+00  1.949367152E-03  3.967548562E+01  5.942599823E+02  7.209932212E-01 
        67  1.214303390E-02 -1.650000044E-03  0.000000000E+00  1.949367268E-03  3.991767952E+01  5.942600177E+02  7.209932641E-01 
        68  1.223773642E-02 -1.650000012E-03  0.000000000E+00  1.949367210E-03  4.012741958E+01  5.942600000E+02  7.209932426E-01 
        69  1.231665286E-02 -1.650000046E-03  0.000000000E+00  1.949367268E-03  4.028911184E+01  5.942600177E+02  7.209932641E-01 
        70  1.238241385E-02 -1.649999998E-03  0.000000000E+00  4.061483332E-03  4.035329866E+01  5.942600159E+02  0.000000000E+00 
        71  1.110245300E-02 -1.649999996E-03  9.860657205E-04  1.930639366E-03  3.798314535E+01  5.942599999E+02  7.224511909E-01 
        72  1.129741118E-02 -1.649999994E-03  9.860237298E-04  1.930117104E-03  3.810944265E+01  5.942599999E+02  7.226129865E-01 
        73  1.038815708E-02 -1.649999987E-03  9.861987235E-04  1.932480877E-03  3.753421466E+01  5.942600000E+02  7.218831327E-01 
        74  8.805574705E-03 -1.650000021E-03  9.864727040E-04  1.932518896E-03  3.684814584E+01  5.942600088E+02  7.213550240E-01 
        75  9.485717905E-03 -1.650000014E-03  9.863583903E-04  1.932568222E-03  3.709854563E+01  5.942600000E+02  7.214950997E-01 
        76  9.996766092E-03 -1.649999943E-03  9.862710097E-04  1.932520376E-03  3.734229623E+01  5.942599823E+02  7.217115938E-01 
        77  7.730630904E-03 -1.650000039E-03  9.866502961E-04  1.932469703E-03  3.653139333E+01  5.942600133E+02  7.212211504E-01 
        78  8.091212126E-03 -1.649999999E-03  9.865892570E-04  1.932483993E-03  3.663110042E+01  5.942600000E+02  7.212590002E-01 
        79  8.598423723E-03 -1.649999983E-03  9.865066297E-04  1.932504612E-03  3.677467187E+01  5.942599911E+02  7.213135874E-01 
        80  1.153309208E-02 -1.650000032E-03  9.865404178E-04  1.927224250E-03  3.829995854E+01  5.942600088E+02  7.229245412E-01 
        81  7.573036225E-03 -1.650000030E-03  9.866765862E-04  1.932466144E-03  3.649609610E+01  5.942600088E+02  7.212113383E-01 
        82  5.783215100E-03 -1.650000004E-03  9.869826635E-04  1.932436540E-03  3.616022382E+01  5.942600000E+02  7.211300598E-01 
        83  6.035506259E-03 -1.649999949E-03  9.869375075E-04  1.932439073E-03  3.619634842E+01  5.942599823E+02  7.211363369E-01 
        84  6.236595952E-03 -1.650000002E-03  9.869024133E-04  1.932441978E-03  3.623105490E+01  5.942600000E+02  7.211440078E-01 
        85  6.880806203E-03 -1.649999944E-03  9.867931445E-04  1.932450922E-03  3.634600103E+01  5.942599823E+02  7.211687948E-01 
        86  1.172947215E-02 -1.650000029E-03  9.869723181E-04  1.922038649E-03  3.848020062E+01  5.942600088E+02  7.232358268E-01 
        87  4.832561986E-03 -1.649999941E-03  9.871570102E-04  1.932428035E-03  3.603475400E+01  5.942599823E+02  7.211093246E-01 
        88  5.159606270E-03 -1.650000004E-03  9.870976822E-04  1.932430556E-03  3.607454556E+01  5.942600000E+02  7.211154023E-01 
        89  3.947734035E-03 -1.649999955E-03  9.873277149E-04  1.932421910E-03  3.594388451E+01  5.942599823E+02  7.210963092E-01 
        90  4.232942892E-03 -1.649999946E-03  9.872707921E-04  1.932423733E-03  3.596950454E+01  5.942599823E+02  7.210996031E-01 
        91  1.189310817E-02 -1.649999954E-03  9.873330752E-04  1.912947922E-03  3.865041725E+01  5.942599822E+02  7.235265315E-01 
        92  2.914795121E-03 -1.649999999E-03  9.875323253E-04  1.932415985E-03  3.586548090E+01  5.942600000E+02  7.210866156E-01 
        93  3.058937451E-03 -1.650000039E-03  9.875036176E-04  1.932416767E-03  3.587386197E+01  5.942600133E+02  7.210875434E-01 
        94  3.121859929E-03 -1.649999985E-03  9.874906111E-04  1.932417061E-03  3.587816152E+01  5.942599956E+02  7.210880192E-01 
        95  1.285714191E-03 -1.649999950E-03  9.878538017E-04  1.932408149E-03  3.579242169E+01  5.942599823E+02  7.210784114E-01 
        96  1.816924899E-03 -1.650000049E-03  9.877480907E-04  1.932410630E-03  3.580985923E+01  5.942600177E+02  7.210805437E-01 
        97  2.170191834E-03 -1.650000044E-03  9.876810309E-04  1.932412244E-03  3.582507306E+01  5.942600177E+02  7.210822228E-01 
        98  1.202946298E-02 -1.649999953E-03  9.876343321E-04  1.896232774E-03  3.880683701E+01  5.942599822E+02  7.237384725E-01 
        99  1.214308635E-02 -1.649999988E-03  9.878858045E-04  1.870636213E-03  3.893981092E+01  5.942600000E+02  7.234098318E-01 
       100 -3.542577826E-04 -1.650000007E-03  9.881497301E-04  1.932402146E-03  3.577371261E+01  5.942600000E+02  7.210762110E-01 
       101  2.031021205E-04 -1.649999952E-03  9.880507533E-04  1.932403962E-03  3.577332830E+01  5.942599823E+02  7.210762660E-01 
       102  4.512136878E-04 -1.649999952E-03  9.880065915E-04  1.932404829E-03  3.577423302E+01  5.942599823E+02  7.210761904E-01 
       103  5.803136392E-04 -1.649999997E-03  9.879823968E-04  1.932405407E-03  3.577631828E+01  5.942600000E+02  7.210767351E-01 
       104  1.223776813E-02 -1.650000009E-03  9.880956075E-04  2.184702367E-03  3.904546759E+01  5.942600008E+02  7.166203315E-01 
       105 -1.968786396E-03 -1.649999951E-03  9.883890366E-04  1.932398207E-03  3.581099517E+01  5.942599823E+02  7.210815036E-01 
       106 -1.652977683E-03 -1.649999996E-03  9.883474365E-04  1.932398843E-03  3.579971045E+01  5.942600000E+02  7.210800788E-01 
       107 -1.155706233E-03 -1.649999999E-03  9.882811823E-04  1.932399870E-03  3.578578331E+01  5.942600000E+02  7.210780382E-01 
       108 -7.328599352E-04 -1.649999953E-03  9.882105507E-04  1.932401005E-03  3.577818363E+01  5.942599823E+02  7.210768601E-01 
       109  1.231666688E-02 -1.649999993E-03  9.882706246E-04  6.679047207E-03  3.911342477E+01  5.942600060E+02  6.684034874E-01 
       110 -1.238224737E-02 -1.650000051E-03  9.884166253E-04  7.769599323E-03  3.912549301E+01  5.942600569E+02  0.000000000E+00 
       111 -1.231697450E-02 -1.649999999E-03  9.884940960E-04  6.754281121E-03  3.911311830E+01  5.942600058E+02  6.701946338E-01 
       112 -2.327584992E-03 -1.649999952E-03  9.884358288E-04  1.932397672E-03  3.582812726E+01  5.942599823E+02  7.210835658E-01 
       113  1.238241434E-02 -1.650000051E-03  9.884166253E-04  7.699953717E-03  3.912398332E+01  5.942600570E+02  0.000000000E+00 
       114 -1.223864467E-02 -1.650000051E-03  9.885870638E-04  2.196420028E-03  3.904281649E+01  5.942600185E+02  7.166580636E-01 
       115 -1.214464338E-02 -1.649999994E-03  9.886984689E-04  1.866896422E-03  3.893625993E+01  5.942600000E+02  7.232311084E-01 
       116 -4.517199587E-03 -1.649999963E-03  9.887236864E-04  1.932396697E-03  3.599133880E+01  5.942599867E+02  7.211047862E-01 
       117 -4.414670316E-03 -1.650000033E-03  9.887104562E-04  1.932396686E-03  3.598109606E+01  5.942600133E+02  7.211033006E-01 
       118 -3.651595001E-03 -1.650000048E-03  9.886098026E-04  1.932396596E-03  3.591403832E+01  5.942600177E+02  7.210940794E-01 
       119 -3.094823677E-03 -1.650000049E-03  9.885372614E-04  1.932396853E-03  3.587237999E+01  5.942600177E+02  7.210888590E-01 
       120 -2.793029229E-03 -1.649999951E-03  9.884973581E-04  1.932397037E-03  3.585306697E+01  5.942599823E+02  7.210865285E-01 
       121 -1.203183536E-02 -1.650000008E-03  9.888320552E-04  1.893400669E-03  3.880328891E+01  5.942599999E+02  7.235713360E-01 
       122 -5.373331867E-03 -1.650000002E-03  9.888373881E-04  1.932398563E-03  3.609401956E+01  5.942600000E+02  7.211211947E-01 
       123 -4.706021831E-03 -1.649999978E-03  9.887486688E-04  1.932397105E-03  3.601327869E+01  5.942599911E+02  7.211083451E-01 
       124 -1.189645587E-02 -1.650000052E-03  9.889921867E-04  1.911349281E-03  3.864700344E+01  5.942600176E+02  7.233876853E-01 
       125 -5.769750150E-03 -1.650000058E-03  9.888914969E-04  1.932400284E-03  3.615036795E+01  5.942600177E+02  7.211314614E-01 
       126 -7.038392819E-03 -1.649999978E-03  9.890637268E-04  1.932410320E-03  3.636872105E+01  5.942599911E+02  7.211791282E-01 
       127 -6.777981764E-03 -1.650000004E-03  9.890279205E-04  1.932407959E-03  3.632051194E+01  5.942600000E+02  7.211682581E-01 
       128 -6.208507374E-03 -1.649999986E-03  9.889500532E-04  1.932402685E-03  3.621783633E+01  5.942600000E+02  7.211444377E-01 
       129 -1.173398426E-02 -1.649999973E-03  9.891839625E-04  1.921051314E-03  3.847666144E+01  5.942599911E+02  7.231249629E-01 
       130 -7.317166953E-03 -1.650000004E-03  9.891033433E-04  1.932415238E-03  3.643108706E+01  5.942600000E+02  7.211970289E-01 
       131 -8.713682192E-03 -1.650000053E-03  9.893002256E-04  1.932457974E-03  3.680368928E+01  5.942600177E+02  7.213307791E-01 
       132 -8.332633425E-03 -1.649999946E-03  9.892454469E-04  1.932443473E-03  3.669219921E+01  5.942599823E+02  7.212873937E-01 
       133 -7.874710432E-03 -1.649999955E-03  9.891805000E-04  1.932426340E-03  3.656299663E+01  5.942599823E+02  7.212361846E-01 
       134 -1.153899587E-02 -1.649999945E-03  9.894136741E-04  1.926575820E-03  3.829545102E+01  5.942599822E+02  7.228409001E-01 
       135 -9.733691370E-03 -1.650000000E-03  9.894490791E-04  1.932469408E-03  3.720048384E+01  5.942600000E+02  7.215836696E-01 
       136 -9.556210586E-03 -1.650000046E-03  9.894235574E-04  1.932505756E-03  3.711431348E+01  5.942600177E+02  7.215079387E-01 
       137 -9.266405885E-03 -1.650000050E-03  9.893819229E-04  1.932488907E-03  3.700524519E+01  5.942600177E+02  7.214452758E-01 
       138 -1.041736222E-02 -1.649999955E-03  9.895527119E-04  1.932338342E-03  3.753916712E+01  5.942599823E+02  7.218768757E-01 
       139 -1.130497527E-02 -1.649999952E-03  9.896886455E-04  1.929678595E-03  3.810306671E+01  5.942599822E+02  7.225540051E-01 
       140 -1.104863784E-02 -1.650000007E-03  9.896471749E-04  1.930452545E-03  3.793748020E+01  5.942599999E+02  7.223556150E-01 
       141  1.110265300E-02 -1.649999997E-03  1.972140752E-03  1.916696969E-03  3.726051061E+01  5.942600000E+02  7.237781230E-01 
       142  1.129766783E-02 -1.649999997E-03  1.972047450E-03  1.915364711E-03  3.731958642E+01  5.942600000E+02  7.240484553E-01 
       143  1.038834619E-02 -1.649999990E-03  1.972439484E-03  1.921400752E-03  3.704764855E+01  5.942600000E+02  7.228253465E-01 
       144  9.996815845E-03 -1.649999998E-03  1.972603110E-03  1.921631942E-03  3.693368637E+01  5.942600000E+02  7.225131151E-01 
       145  9.485811853E-03 -1.649999993E-03  1.972800993E-03  1.921914214E-03  3.678891852E+01  5.942600000E+02  7.221182171E-01 
       146  8.598398070E-03 -1.649999998E-03  1.973137196E-03  1.921841561E-03  3.656033653E+01  5.942600000E+02  7.217487053E-01 
       147  8.805409659E-03 -1.650000022E-03  1.973060752E-03  1.921857504E-03  3.661206847E+01  5.942600088E+02  7.218328425E-01 
       148  1.153328860E-02 -1.649999970E-03  1.973080771E-03  1.908924094E-03  3.738196178E+01  5.942599911E+02  7.245224373E-01 
       149  8.091608969E-03 -1.650000003E-03  1.973322042E-03  1.921806596E-03  3.644877421E+01  5.942600000E+02  7.216299248E-01 
       150  7.572601876E-03 -1.650000025E-03  1.973515861E-03  1.921775899E-03  3.634188274E+01  5.942600088E+02  7.215251066E-01 
       151  7.730469083E-03 -1.650000002E-03  1.973458047E-03  1.921782247E-03  3.637108697E+01  5.942600000E+02  7.215473819E-01 
