nodenumber     x-coordinate     y-coordinate     z-coordinate turb-kinetic-energy         pressure      temperature velocity-magnitude 
         1 -1.238224696E-02 -1.650000007E-03  0.000000000E+00  4.602013500E-03  4.419770262E+01  5.942600182E+02  0.000000000E+00 
         2 -1.231646687E-02 -1.649999949E-03  0.000000000E+00  2.228439417E-03  4.412886694E+01  5.942599823E+02  7.708764450E-01 
         3 -1.223752875E-02 -1.650000008E-03  0.000000000E+00  2.228439483E-03  4.395623091E+01  5.942600000E+02  7.708764680E-01 
         4 -1.214279805E-02 -1.649999951E-03  0.000000000E+00  2.228439417E-03  4.373214484E+01  5.942599823E+02  7.708764450E-01 
         5 -1.202911553E-02 -1.649999951E-03  0.000000000E+00  2.228439417E-03  4.347298416E+01  5.942599823E+02  7.708764450E-01 
         6 -1.189268779E-02 -1.650000001E-03  0.000000000E+00  2.228439483E-03  4.318680406E+01  5.942600000E+02  7.708764680E-01 
         7 -1.172896070E-02 -1.650000028E-03  0.000000000E+00  2.228439517E-03  4.288545927E+01  5.942600089E+02  7.708764795E-01 
         8 -1.153246726E-02 -1.649999968E-03  0.000000000E+00  2.228439450E-03  4.257194035E+01  5.942599911E+02  7.708764565E-01 
         9 -1.129664480E-02 -1.649999999E-03  0.000000000E+00  2.228439483E-03  4.210080664E+01  5.942600000E+02  7.708764680E-01 
        10 -1.104180182E-02 -1.649999952E-03  0.000000000E+00  2.228439417E-03  4.190586063E+01  5.942599823E+02  7.708764450E-01 
        11 -1.040965475E-02 -1.650000037E-03  0.000000000E+00  2.228439550E-03  4.143350740E+01  5.942600177E+02  7.708764910E-01 
        12 -9.727797567E-03 -1.649999974E-03  0.000000000E+00  2.228439450E-03  4.096566817E+01  5.942599911E+02  7.708764565E-01 
        13 -9.549135039E-03 -1.650000016E-03  0.000000000E+00  2.228439517E-03  4.084466883E+01  5.942600089E+02  7.708764795E-01 
        14 -9.257402967E-03 -1.649999996E-03  0.000000000E+00  2.228439483E-03  4.070371581E+01  5.942600000E+02  7.708764680E-01 
        15 -8.707201624E-03 -1.650000004E-03  0.000000000E+00  2.228439483E-03  4.044466876E+01  5.942600000E+02  7.708764680E-01 
        16 -8.327874969E-03 -1.650000002E-03  0.000000000E+00  2.228439483E-03  4.030506259E+01  5.942600000E+02  7.708764680E-01 
        17 -7.868819436E-03 -1.650000009E-03  0.000000000E+00  2.228439483E-03  4.014114391E+01  5.942600000E+02  7.708764680E-01 
        18 -7.309914944E-03 -1.650000005E-03  0.000000000E+00  2.228439483E-03  3.997995489E+01  5.942600000E+02  7.708764680E-01 
        19 -7.033056079E-03 -1.649999952E-03  0.000000000E+00  2.228439417E-03  3.990487643E+01  5.942599823E+02  7.708764450E-01 
        20 -6.774404682E-03 -1.650000049E-03  0.000000000E+00  2.228439550E-03  3.984854171E+01  5.942600177E+02  7.708764910E-01 
        21 -6.203718579E-03 -1.649999993E-03  0.000000000E+00  2.228439483E-03  3.972863645E+01  5.942600000E+02  7.708764680E-01 
        22 -5.764059055E-03 -1.650000057E-03  0.000000000E+00  2.228439550E-03  3.964858602E+01  5.942600177E+02  7.708764910E-01 
        23 -5.369046210E-03 -1.650000008E-03  0.000000000E+00  2.228439483E-03  3.958289912E+01  5.942600000E+02  7.708764680E-01 
        24 -4.703991919E-03 -1.649999998E-03  0.000000000E+00  2.228439483E-03  3.948930667E+01  5.942600000E+02  7.708764680E-01 
        25 -4.513416810E-03 -1.649999963E-03  0.000000000E+00  2.228439434E-03  3.946347244E+01  5.942599867E+02  7.708764508E-01 
        26 -4.409949101E-03 -1.650000002E-03  0.000000000E+00  2.228439483E-03  3.945155637E+01  5.942600000E+02  7.708764680E-01 
        27 -3.648226494E-03 -1.649999989E-03  0.000000000E+00  2.228439483E-03  3.937437688E+01  5.942600000E+02  7.708764680E-01 
        28 -3.090814824E-03 -1.649999990E-03  0.000000000E+00  2.228439483E-03  3.932581728E+01  5.942600000E+02  7.708764680E-01 
        29 -2.790049428E-03 -1.649999975E-03  0.000000000E+00  2.228439450E-03  3.930366865E+01  5.942599911E+02  7.708764565E-01 
        30 -2.326109559E-03 -1.650000046E-03  0.000000000E+00  2.228439550E-03  3.927562162E+01  5.942600177E+02  7.708764910E-01 
        31 -1.966101120E-03 -1.650000005E-03  0.000000000E+00  2.228439483E-03  3.925620963E+01  5.942600000E+02  7.708764680E-01 
        32 -1.649288649E-03 -1.650000004E-03  0.000000000E+00  2.228439483E-03  3.924375731E+01  5.942600000E+02  7.708764680E-01 
        33 -1.153324779E-03 -1.650000049E-03  0.000000000E+00  2.228439550E-03  3.922890020E+01  5.942600177E+02  7.708764910E-01 
        34 -7.314993435E-04 -1.649999992E-03  0.000000000E+00  2.228439483E-03  3.922057407E+01  5.942600000E+02  7.708764680E-01 
        35 -3.521276869E-04 -1.650000043E-03  0.000000000E+00  2.228439550E-03  3.921590835E+01  5.942600177E+02  7.708764910E-01 
        36  2.062356178E-04 -1.650000004E-03  0.000000000E+00  2.228439483E-03  3.921564642E+01  5.942600000E+02  7.708764680E-01 
        37  4.531226353E-04 -1.649999970E-03  0.000000000E+00  2.228439450E-03  3.921688640E+01  5.942599911E+02  7.708764565E-01 
        38  5.816147412E-04 -1.650000031E-03  0.000000000E+00  2.228439517E-03  3.921930328E+01  5.942600089E+02  7.708764795E-01 
        39  1.287381078E-03 -1.649999940E-03  0.000000000E+00  2.228439417E-03  3.923867763E+01  5.942599823E+02  7.708764450E-01 
        40  1.817906072E-03 -1.650000045E-03  0.000000000E+00  2.228439550E-03  3.925900027E+01  5.942600177E+02  7.708764910E-01 
        41  2.171618469E-03 -1.649999958E-03  0.000000000E+00  2.228439417E-03  3.927669917E+01  5.942599823E+02  7.708764450E-01 
        42  2.917015337E-03 -1.650000026E-03  0.000000000E+00  2.228439517E-03  3.932399541E+01  5.942600089E+02  7.708764795E-01 
        43  3.060138752E-03 -1.649999982E-03  0.000000000E+00  2.228439458E-03  3.933370200E+01  5.942599934E+02  7.708764594E-01 
        44  3.122627803E-03 -1.650000012E-03  0.000000000E+00  2.228439500E-03  3.933880291E+01  5.942600044E+02  7.708764737E-01 
        45  3.948750735E-03 -1.649999946E-03  0.000000000E+00  2.228439417E-03  3.941655736E+01  5.942599823E+02  7.708764450E-01 
        46  4.233552192E-03 -1.650000005E-03  0.000000000E+00  2.228439483E-03  3.944544413E+01  5.942600000E+02  7.708764680E-01 
        47  4.833507872E-03 -1.649999945E-03  0.000000000E+00  2.228439417E-03  3.951989666E+01  5.942599823E+02  7.708764450E-01 
        48  5.160210487E-03 -1.649999946E-03  0.000000000E+00  2.228439417E-03  3.956578620E+01  5.942599823E+02  7.708764450E-01 
        49  5.783248106E-03 -1.650000052E-03  0.000000000E+00  2.228439550E-03  3.966956792E+01  5.942600177E+02  7.708764910E-01 
        50  6.035984549E-03 -1.649999976E-03  0.000000000E+00  2.228439450E-03  3.971409419E+01  5.942599911E+02  7.708764565E-01 
        51  6.237400109E-03 -1.650000022E-03  0.000000000E+00  2.228439517E-03  3.975475541E+01  5.942600089E+02  7.708764795E-01 
        52  6.881112835E-03 -1.650000056E-03  0.000000000E+00  2.228439550E-03  3.989079699E+01  5.942600177E+02  7.708764910E-01 
        53  7.573470319E-03 -1.649999997E-03  0.000000000E+00  2.228439483E-03  4.007138362E+01  5.942600000E+02  7.708764680E-01 
        54  7.730792309E-03 -1.650000003E-03  0.000000000E+00  2.228439483E-03  4.011384285E+01  5.942600000E+02  7.708764680E-01 
        55  8.090815089E-03 -1.650000001E-03  0.000000000E+00  2.228439483E-03  4.023763472E+01  5.942600000E+02  7.708764680E-01 
        56  8.598449542E-03 -1.650000003E-03  0.000000000E+00  2.228439483E-03  4.041642817E+01  5.942600000E+02  7.708764680E-01 
        57  8.805739513E-03 -1.650000003E-03  0.000000000E+00  2.228439483E-03  4.051209074E+01  5.942600000E+02  7.708764680E-01 
        58  9.485623847E-03 -1.649999997E-03  0.000000000E+00  2.228439483E-03  4.083793229E+01  5.942600000E+02  7.708764680E-01 
        59  9.996717122E-03 -1.650000053E-03  0.000000000E+00  2.228439550E-03  4.117861782E+01  5.942600177E+02  7.708764910E-01 
        60  1.038796781E-02 -1.650000000E-03  0.000000000E+00  2.228439483E-03  4.145100818E+01  5.942600000E+02  7.708764680E-01 
        61  1.110225324E-02 -1.650000050E-03  0.000000000E+00  2.228439550E-03  4.199115488E+01  5.942600177E+02  7.708764910E-01 
        62  1.129715473E-02 -1.650000051E-03  0.000000000E+00  2.228439550E-03  4.214165019E+01  5.942600177E+02  7.708764910E-01 
        63  1.153289457E-02 -1.649999949E-03  0.000000000E+00  2.228439417E-03  4.262358819E+01  5.942599823E+02  7.708764450E-01 
        64  1.172932302E-02 -1.649999996E-03  0.000000000E+00  2.228439483E-03  4.294703144E+01  5.942600000E+02  7.708764680E-01 
        65  1.189299876E-02 -1.650000052E-03  0.000000000E+00  2.228439550E-03  4.325947283E+01  5.942600177E+02  7.708764910E-01 
        66  1.202938442E-02 -1.649999949E-03  0.000000000E+00  2.228439417E-03  4.355789850E+01  5.942599823E+02  7.708764450E-01 
        67  1.214303390E-02 -1.650000044E-03  0.000000000E+00  2.228439550E-03  4.382913043E+01  5.942600177E+02  7.708764910E-01 
        68  1.223773642E-02 -1.650000012E-03  0.000000000E+00  2.228439483E-03  4.406431633E+01  5.942600000E+02  7.708764680E-01 
        69  1.231665286E-02 -1.650000046E-03  0.000000000E+00  2.228439550E-03  4.424549747E+01  5.942600177E+02  7.708764910E-01 
        70  1.238241385E-02 -1.649999998E-03  0.000000000E+00  4.573020998E-03  4.431730438E+01  5.942600182E+02  0.000000000E+00 
        71  1.110245300E-02 -1.649999996E-03  9.860657205E-04  2.207017838E-03  4.166462612E+01  5.942599999E+02  7.724014257E-01 
        72  1.129741118E-02 -1.649999994E-03  9.860237298E-04  2.206422581E-03  4.180605992E+01  5.942599999E+02  7.725705841E-01 
        73  1.038815708E-02 -1.649999987E-03  9.861987235E-04  2.209117097E-03  4.116187771E+01  5.942600000E+02  7.718075291E-01 
        74  8.805574705E-03 -1.650000021E-03  9.864727040E-04  2.209171429E-03  4.039334933E+01  5.942600088E+02  7.712552076E-01 
        75  9.485717905E-03 -1.650000014E-03  9.863583903E-04  2.209224872E-03  4.067384586E+01  5.942600000E+02  7.714017559E-01 
        76  9.996766092E-03 -1.649999943E-03  9.862710097E-04  2.209165787E-03  4.094689829E+01  5.942599823E+02  7.716281456E-01 
        77  7.730630904E-03 -1.650000039E-03  9.866502961E-04  2.209117592E-03  4.003854637E+01  5.942600133E+02  7.711150524E-01 
        78  8.091212126E-03 -1.649999999E-03  9.865892570E-04  2.209133299E-03  4.015022927E+01  5.942600000E+02  7.711546905E-01 
        79  8.598423723E-03 -1.649999983E-03  9.865066297E-04  2.209155958E-03  4.031103682E+01  5.942599911E+02  7.712118564E-01 
        80  1.153309208E-02 -1.650000032E-03  9.865404178E-04  2.203144973E-03  4.201931360E+01  5.942600088E+02  7.728962202E-01 
        81  7.573036225E-03 -1.650000030E-03  9.866765862E-04  2.209113660E-03  3.999902107E+01  5.942600088E+02  7.711047613E-01 
        82  5.783215100E-03 -1.650000004E-03  9.869826635E-04  2.209080889E-03  3.962288184E+01  5.942600000E+02  7.710194424E-01 
        83  6.035506259E-03 -1.649999949E-03  9.869375075E-04  2.209083705E-03  3.966334140E+01  5.942599823E+02  7.710260475E-01 
        84  6.236595952E-03 -1.650000002E-03  9.869024133E-04  2.209086927E-03  3.970221248E+01  5.942600000E+02  7.710341051E-01 
        85  6.880806203E-03 -1.649999944E-03  9.867931445E-04  2.209096842E-03  3.983092072E+01  5.942599823E+02  7.710601446E-01 
        86  1.172947215E-02 -1.650000029E-03  9.869723181E-04  2.197282497E-03  4.222094804E+01  5.942600088E+02  7.732214508E-01 
        87  4.832561986E-03 -1.649999941E-03  9.871570102E-04  2.209071406E-03  3.948233944E+01  5.942599823E+02  7.709976125E-01 
        88  5.159606270E-03 -1.650000004E-03  9.870976822E-04  2.209074224E-03  3.952690906E+01  5.942600000E+02  7.710040165E-01 
        89  3.947734035E-03 -1.649999955E-03  9.873277149E-04  2.209064548E-03  3.938046412E+01  5.942599823E+02  7.709838881E-01 
        90  4.232942892E-03 -1.649999946E-03  9.872707921E-04  2.209066593E-03  3.940920510E+01  5.942599823E+02  7.709873657E-01 
        91  1.189310817E-02 -1.649999954E-03  9.873330752E-04  2.187036624E-03  4.241134045E+01  5.942599822E+02  7.735250520E-01 
        92  2.914795121E-03 -1.649999999E-03  9.875323253E-04  2.209057883E-03  3.929239203E+01  5.942600000E+02  7.709736491E-01 
        93  3.058937451E-03 -1.650000039E-03  9.875036176E-04  2.209058767E-03  3.930183326E+01  5.942600133E+02  7.709746300E-01 
        94  3.121859929E-03 -1.649999985E-03  9.874906111E-04  2.209059098E-03  3.930666726E+01  5.942599956E+02  7.709751330E-01 
        95  1.285714191E-03 -1.649999950E-03  9.878538017E-04  2.209049008E-03  3.920975121E+01  5.942599823E+02  7.709649785E-01 
        96  1.816924899E-03 -1.650000049E-03  9.877480907E-04  2.209051828E-03  3.922960156E+01  5.942600177E+02  7.709672275E-01 
        97  2.170191834E-03 -1.650000044E-03  9.876810309E-04  2.209053658E-03  3.924682568E+01  5.942600177E+02  7.709690067E-01 
        98  1.202946298E-02 -1.649999953E-03  9.876343321E-04  2.168273044E-03  4.258639702E+01  5.942599822E+02  7.737468575E-01 
        99  1.214308635E-02 -1.649999988E-03  9.878858045E-04  2.138825561E-03  4.273540088E+01  5.942600000E+02  7.734140923E-01 
       100 -3.542577826E-04 -1.650000007E-03  9.881497301E-04  2.209042147E-03  3.918744279E+01  5.942600000E+02  7.709626482E-01 
       101  2.031021205E-04 -1.649999952E-03  9.880507533E-04  2.209044232E-03  3.918753976E+01  5.942599823E+02  7.709627086E-01 
       102  4.512136878E-04 -1.649999952E-03  9.880065915E-04  2.209045226E-03  3.918877882E+01  5.942599823E+02  7.709626557E-01 
       103  5.803136392E-04 -1.649999997E-03  9.879823968E-04  2.209045886E-03  3.919121358E+01  5.942600000E+02  7.709632103E-01 
       104  1.223776813E-02 -1.650000009E-03  9.880956075E-04  2.473881695E-03  4.285396951E+01  5.942600009E+02  7.663656215E-01 
       105 -1.968786396E-03 -1.649999951E-03  9.883890366E-04  2.209037564E-03  3.922725704E+01  5.942599823E+02  7.709682541E-01 
       106 -1.652977683E-03 -1.649999996E-03  9.883474365E-04  2.209038312E-03  3.921503573E+01  5.942600000E+02  7.709667283E-01 
       107 -1.155706233E-03 -1.649999999E-03  9.882811823E-04  2.209039513E-03  3.920006803E+01  5.942600000E+02  7.709645226E-01 
       108 -7.328599352E-04 -1.649999953E-03  9.882105507E-04  2.209040829E-03  3.919203965E+01  5.942599823E+02  7.709633176E-01 
       109  1.231666688E-02 -1.649999993E-03  9.882706246E-04  7.486001143E-03  4.293020442E+01  5.942600067E+02  7.157850781E-01 
       110 -1.238224737E-02 -1.650000051E-03  9.884166253E-04  8.702813620E-03  4.293253776E+01  5.942600624E+02  0.000000000E+00 
       111 -1.231697450E-02 -1.649999999E-03  9.884940960E-04  7.569429088E-03  4.291867711E+01  5.942600065E+02  7.176846435E-01 
       112 -2.327584992E-03 -1.649999952E-03  9.884358288E-04  2.209036924E-03  3.924592667E+01  5.942599823E+02  7.709704586E-01 
       113  1.238241434E-02 -1.650000051E-03  9.884166253E-04  8.625578409E-03  4.294204496E+01  5.942600625E+02  0.000000000E+00 
       114 -1.223864467E-02 -1.650000051E-03  9.885870638E-04  2.486346049E-03  4.283982877E+01  5.942600186E+02  7.664040908E-01 
       115 -1.214464338E-02 -1.649999994E-03  9.886984689E-04  2.134461679E-03  4.272015798E+01  5.942600000E+02  7.732253828E-01 
       116 -4.517199587E-03 -1.649999963E-03  9.887236864E-04  2.209035533E-03  3.942515941E+01  5.942599867E+02  7.709930938E-01 
       117 -4.414670316E-03 -1.650000033E-03  9.887104562E-04  2.209035538E-03  3.941386211E+01  5.942600133E+02  7.709915125E-01 
       118 -3.651595001E-03 -1.650000048E-03  9.886098026E-04  2.209035549E-03  3.934005575E+01  5.942600177E+02  7.709816813E-01 
       119 -3.094823677E-03 -1.650000049E-03  9.885372614E-04  2.209035914E-03  3.929430901E+01  5.942600177E+02  7.709761156E-01 
       120 -2.793029229E-03 -1.649999951E-03  9.884973581E-04  2.209036156E-03  3.927316006E+01  5.942599823E+02  7.709736285E-01 
       121 -1.203183536E-02 -1.650000008E-03  9.888320552E-04  2.165103866E-03  4.257123668E+01  5.942599999E+02  7.735731430E-01 
       122 -5.373331867E-03 -1.650000002E-03  9.888373881E-04  2.209037477E-03  3.953865797E+01  5.942600000E+02  7.710105611E-01 
       123 -4.706021831E-03 -1.649999978E-03  9.887486688E-04  2.209035958E-03  3.944940714E+01  5.942599911E+02  7.709968825E-01 
       124 -1.189645587E-02 -1.650000052E-03  9.889921867E-04  2.185244964E-03  4.239625648E+01  5.942600176E+02  7.733793459E-01 
       125 -5.769750150E-03 -1.650000058E-03  9.888914969E-04  2.209039333E-03  3.960110021E+01  5.942600177E+02  7.710214784E-01 
       126 -7.038392819E-03 -1.649999978E-03  9.890637268E-04  2.209050296E-03  3.984372881E+01  5.942599911E+02  7.710719594E-01 
       127 -6.777981764E-03 -1.650000004E-03  9.890279205E-04  2.209047711E-03  3.979011969E+01  5.942600000E+02  7.710604524E-01 
       128 -6.208507374E-03 -1.649999986E-03  9.889500532E-04  2.209041930E-03  3.967593794E+01  5.942600000E+02  7.710352497E-01 
       129 -1.173398426E-02 -1.649999973E-03  9.891839625E-04  2.196173765E-03  4.220565449E+01  5.942599911E+02  7.731037939E-01 
       130 -7.317166953E-03 -1.650000004E-03  9.891033433E-04  2.209055716E-03  3.991328212E+01  5.942600000E+02  7.710908173E-01 
       131 -8.713682192E-03 -1.650000053E-03  9.893002256E-04  2.209102674E-03  4.032962675E+01  5.942600177E+02  7.712311275E-01 
       132 -8.332633425E-03 -1.649999946E-03  9.892454469E-04  2.209086741E-03  4.020492822E+01  5.942599823E+02  7.711856751E-01 
       133 -7.874710432E-03 -1.649999955E-03  9.891805000E-04  2.209067940E-03  4.006043947E+01  5.942599823E+02  7.711320271E-01 
       134 -1.153899587E-02 -1.649999945E-03  9.894136741E-04  2.202415825E-03  4.200277905E+01  5.942599822E+02  7.728063566E-01 
       135 -9.733691370E-03 -1.650000000E-03  9.894490791E-04  2.209110891E-03  4.077444230E+01  5.942600000E+02  7.714949195E-01 
       136 -9.556210586E-03 -1.650000046E-03  9.894235574E-04  2.209153805E-03  4.067777591E+01  5.942600177E+02  7.714159938E-01 
       137 -9.266405885E-03 -1.650000050E-03  9.893819229E-04  2.209135792E-03  4.055554395E+01  5.942600177E+02  7.713505971E-01 
       138 -1.041736222E-02 -1.649999955E-03  9.895527119E-04  2.208955678E-03  4.115449679E+01  5.942599822E+02  7.718003743E-01 
       139 -1.130497527E-02 -1.649999952E-03  9.896886455E-04  2.205928766E-03  4.178718053E+01  5.942599822E+02  7.725065019E-01 
       140 -1.104863784E-02 -1.650000007E-03  9.896471749E-04  2.206809588E-03  4.160137549E+01  5.942599999E+02  7.722996278E-01 
       141  1.110265300E-02 -1.649999997E-03  1.972140752E-03  2.191095969E-03  4.085644345E+01  5.942600000E+02  7.737895207E-01 
       142  1.129766783E-02 -1.649999997E-03  1.972047450E-03  2.189581624E-03  4.092277753E+01  5.942600000E+02  7.740721013E-01 
       143  1.038834619E-02 -1.649999990E-03  1.972439484E-03  2.196443076E-03  4.061742127E+01  5.942600000E+02  7.727935918E-01 
       144  9.996815845E-03 -1.649999998E-03  1.972603110E-03  2.196711031E-03  4.048959184E+01  5.942600000E+02  7.724671188E-01 
       145  9.485811853E-03 -1.649999993E-03  1.972800993E-03  2.197038299E-03  4.032719640E+01  5.942600000E+02  7.720542073E-01 
       146  8.598398070E-03 -1.649999998E-03  1.973137196E-03  2.196961295E-03  4.007103443E+01  5.942600000E+02  7.716675405E-01 
       147  8.805409659E-03 -1.650000022E-03  1.973060752E-03  2.196978161E-03  4.012901426E+01  5.942600088E+02  7.717555833E-01 
       148  1.153328860E-02 -1.649999970E-03  1.973080771E-03  2.182285465E-03  4.099288897E+01  5.942599911E+02  7.745673396E-01 
       149  8.091608969E-03 -1.650000003E-03  1.973322042E-03  2.196922892E-03  3.994610208E+01  5.942600000E+02  7.715430866E-01 
       150  7.572601876E-03 -1.650000025E-03  1.973515861E-03  2.196889122E-03  3.982641448E+01  5.942600088E+02  7.714332229E-01 
       151  7.730469083E-03 -1.650000002E-03  1.973458047E-03  2.196896140E-03  3.985909892E+01  5.942600000E+02  7.714566003E-01 
