nodenumber     x-coordinate     y-coordinate     z-coordinate turb-kinetic-energy         pressure      temperature velocity-magnitude 
         1 -1.238224696E-02 -1.650000007E-03  0.000000000E+00  4.084728220E-03  4.023514023E+01  5.942600159E+02  0.000000000E+00 
         2 -1.231646687E-02 -1.649999949E-03  0.000000000E+00  1.947680810E-03  4.017361342E+01  5.942599823E+02  7.206812984E-01 
         3 -1.223752875E-02 -1.650000008E-03  0.000000000E+00  1.947680868E-03  4.001951478E+01  5.942600000E+02  7.206813199E-01 
         4 -1.214279805E-02 -1.649999951E-03  0.000000000E+00  1.947680810E-03  3.981970128E+01  5.942599823E+02  7.206812984E-01 
         5 -1.202911553E-02 -1.649999951E-03  0.000000000E+00  1.947680810E-03  3.958839273E+01  5.942599823E+02  7.206812984E-01 
         6 -1.189268779E-02 -1.650000001E-03  0.000000000E+00  1.947680868E-03  3.933263206E+01  5.942600000E+02  7.206813199E-01 
         7 -1.172896070E-02 -1.650000028E-03  0.000000000E+00  1.947680897E-03  3.906321230E+01  5.942600089E+02  7.206813306E-01 
         8 -1.153246726E-02 -1.649999968E-03  0.000000000E+00  1.947680839E-03  3.878296559E+01  5.942599911E+02  7.206813091E-01 
         9 -1.129664480E-02 -1.649999999E-03  0.000000000E+00  1.947680868E-03  3.836212029E+01  5.942600000E+02  7.206813199E-01 
        10 -1.104180182E-02 -1.649999952E-03  0.000000000E+00  1.947680810E-03  3.818812882E+01  5.942599823E+02  7.206812984E-01 
        11 -1.040965475E-02 -1.650000037E-03  0.000000000E+00  1.947680926E-03  3.776653681E+01  5.942600177E+02  7.206813414E-01 
        12 -9.727797567E-03 -1.649999974E-03  0.000000000E+00  1.947680839E-03  3.734923454E+01  5.942599911E+02  7.206813091E-01 
        13 -9.549135039E-03 -1.650000016E-03  0.000000000E+00  1.947680897E-03  3.724128962E+01  5.942600089E+02  7.206813306E-01 
        14 -9.257402967E-03 -1.649999996E-03  0.000000000E+00  1.947680868E-03  3.711552785E+01  5.942600000E+02  7.206813199E-01 
        15 -8.707201624E-03 -1.650000004E-03  0.000000000E+00  1.947680868E-03  3.688442264E+01  5.942600000E+02  7.206813199E-01 
        16 -8.327874969E-03 -1.650000002E-03  0.000000000E+00  1.947680868E-03  3.675971468E+01  5.942600000E+02  7.206813199E-01 
        17 -7.868819436E-03 -1.650000009E-03  0.000000000E+00  1.947680868E-03  3.661327005E+01  5.942600000E+02  7.206813199E-01 
        18 -7.309914944E-03 -1.650000005E-03  0.000000000E+00  1.947680868E-03  3.646898428E+01  5.942600000E+02  7.206813199E-01 
        19 -7.033056079E-03 -1.649999952E-03  0.000000000E+00  1.947680810E-03  3.640176291E+01  5.942599823E+02  7.206812984E-01 
        20 -6.774404682E-03 -1.650000049E-03  0.000000000E+00  1.947680926E-03  3.635119351E+01  5.942600177E+02  7.206813414E-01 
        21 -6.203718579E-03 -1.649999993E-03  0.000000000E+00  1.947680868E-03  3.624356380E+01  5.942600000E+02  7.206813199E-01 
        22 -5.764059055E-03 -1.650000057E-03  0.000000000E+00  1.947680926E-03  3.617153582E+01  5.942600177E+02  7.206813414E-01 
        23 -5.369046210E-03 -1.650000008E-03  0.000000000E+00  1.947680868E-03  3.611237732E+01  5.942600000E+02  7.206813199E-01 
        24 -4.703991919E-03 -1.649999998E-03  0.000000000E+00  1.947680868E-03  3.602787680E+01  5.942600000E+02  7.206813199E-01 
        25 -4.513416810E-03 -1.649999963E-03  0.000000000E+00  1.947680825E-03  3.600454879E+01  5.942599867E+02  7.206813038E-01 
        26 -4.409949101E-03 -1.650000002E-03  0.000000000E+00  1.947680868E-03  3.599376679E+01  5.942600000E+02  7.206813199E-01 
        27 -3.648226494E-03 -1.649999989E-03  0.000000000E+00  1.947680868E-03  3.592378599E+01  5.942600000E+02  7.206813199E-01 
        28 -3.090814824E-03 -1.649999990E-03  0.000000000E+00  1.947680868E-03  3.587965468E+01  5.942600000E+02  7.206813199E-01 
        29 -2.790049428E-03 -1.649999975E-03  0.000000000E+00  1.947680839E-03  3.585946797E+01  5.942599911E+02  7.206813091E-01 
        30 -2.326109559E-03 -1.650000046E-03  0.000000000E+00  1.947680926E-03  3.583383083E+01  5.942600177E+02  7.206813414E-01 
        31 -1.966101120E-03 -1.650000005E-03  0.000000000E+00  1.947680868E-03  3.581605098E+01  5.942600000E+02  7.206813199E-01 
        32 -1.649288649E-03 -1.650000004E-03  0.000000000E+00  1.947680868E-03  3.580457236E+01  5.942600000E+02  7.206813199E-01 
        33 -1.153324779E-03 -1.650000049E-03  0.000000000E+00  1.947680926E-03  3.579076525E+01  5.942600177E+02  7.206813414E-01 
        34 -7.314993435E-04 -1.649999992E-03  0.000000000E+00  1.947680868E-03  3.578290685E+01  5.942600000E+02  7.206813199E-01 
        35 -3.521276869E-04 -1.650000043E-03  0.000000000E+00  1.947680926E-03  3.577838065E+01  5.942600177E+02  7.206813414E-01 
        36  2.062356178E-04 -1.650000004E-03  0.000000000E+00  1.947680868E-03  3.577768332E+01  5.942600000E+02  7.206813199E-01 
        37  4.531226353E-04 -1.649999970E-03  0.000000000E+00  1.947680839E-03  3.577859548E+01  5.942599911E+02  7.206813091E-01 
        38  5.816147412E-04 -1.650000031E-03  0.000000000E+00  1.947680897E-03  3.578066235E+01  5.942600089E+02  7.206813306E-01 
        39  1.287381078E-03 -1.649999940E-03  0.000000000E+00  1.947680810E-03  3.579749673E+01  5.942599823E+02  7.206812984E-01 
        40  1.817906072E-03 -1.650000045E-03  0.000000000E+00  1.947680926E-03  3.581532822E+01  5.942600177E+02  7.206813414E-01 
        41  2.171618469E-03 -1.649999958E-03  0.000000000E+00  1.947680810E-03  3.583094693E+01  5.942599823E+02  7.206812984E-01 
        42  2.917015337E-03 -1.650000026E-03  0.000000000E+00  1.947680897E-03  3.587284750E+01  5.942600089E+02  7.206813306E-01 
        43  3.060138752E-03 -1.649999982E-03  0.000000000E+00  1.947680846E-03  3.588145554E+01  5.942599934E+02  7.206813118E-01 
        44  3.122627803E-03 -1.650000012E-03  0.000000000E+00  1.947680883E-03  3.588598873E+01  5.942600044E+02  7.206813253E-01 
        45  3.948750735E-03 -1.649999946E-03  0.000000000E+00  1.947680810E-03  3.595517372E+01  5.942599823E+02  7.206812984E-01 
        46  4.233552192E-03 -1.650000005E-03  0.000000000E+00  1.947680868E-03  3.598089886E+01  5.942600000E+02  7.206813199E-01 
        47  4.833507872E-03 -1.649999945E-03  0.000000000E+00  1.947680810E-03  3.604726081E+01  5.942599823E+02  7.206812984E-01 
        48  5.160210487E-03 -1.649999946E-03  0.000000000E+00  1.947680810E-03  3.608819093E+01  5.942599823E+02  7.206812984E-01 
        49  5.783248106E-03 -1.650000052E-03  0.000000000E+00  1.947680926E-03  3.618075435E+01  5.942600177E+02  7.206813414E-01 
        50  6.035984549E-03 -1.649999976E-03  0.000000000E+00  1.947680839E-03  3.622047306E+01  5.942599911E+02  7.206813091E-01 
        51  6.237400109E-03 -1.650000022E-03  0.000000000E+00  1.947680897E-03  3.625674574E+01  5.942600089E+02  7.206813306E-01 
        52  6.881112835E-03 -1.650000056E-03  0.000000000E+00  1.947680926E-03  3.637813146E+01  5.942600177E+02  7.206813414E-01 
        53  7.573470319E-03 -1.649999997E-03  0.000000000E+00  1.947680868E-03  3.653924022E+01  5.942600000E+02  7.206813199E-01 
        54  7.730792309E-03 -1.650000003E-03  0.000000000E+00  1.947680868E-03  3.657712569E+01  5.942600000E+02  7.206813199E-01 
        55  8.090815089E-03 -1.650000001E-03  0.000000000E+00  1.947680868E-03  3.668756471E+01  5.942600000E+02  7.206813199E-01 
        56  8.598449542E-03 -1.650000003E-03  0.000000000E+00  1.947680868E-03  3.684707993E+01  5.942600000E+02  7.206813199E-01 
        57  8.805739513E-03 -1.650000003E-03  0.000000000E+00  1.947680868E-03  3.693242460E+01  5.942600000E+02  7.206813199E-01 
        58  9.485623847E-03 -1.649999997E-03  0.000000000E+00  1.947680868E-03  3.722314355E+01  5.942600000E+02  7.206813199E-01 
        59  9.996717122E-03 -1.650000053E-03  0.000000000E+00  1.947680926E-03  3.752715485E+01  5.942600177E+02  7.206813414E-01 
        60  1.038796781E-02 -1.650000000E-03  0.000000000E+00  1.947680868E-03  3.777023250E+01  5.942600000E+02  7.206813199E-01 
        61  1.110225324E-02 -1.650000050E-03  0.000000000E+00  1.947680926E-03  3.825237350E+01  5.942600177E+02  7.206813414E-01 
        62  1.129715473E-02 -1.650000051E-03  0.000000000E+00  1.947680926E-03  3.838671162E+01  5.942600177E+02  7.206813414E-01 
        63  1.153289457E-02 -1.649999949E-03  0.000000000E+00  1.947680810E-03  3.881703631E+01  5.942599823E+02  7.206812984E-01 
        64  1.172932302E-02 -1.649999996E-03  0.000000000E+00  1.947680868E-03  3.910596113E+01  5.942600000E+02  7.206813199E-01 
        65  1.189299876E-02 -1.650000052E-03  0.000000000E+00  1.947680926E-03  3.938512981E+01  5.942600177E+02  7.206813414E-01 
        66  1.202938442E-02 -1.649999949E-03  0.000000000E+00  1.947680810E-03  3.965171575E+01  5.942599823E+02  7.206812984E-01 
        67  1.214303390E-02 -1.650000044E-03  0.000000000E+00  1.947680926E-03  3.989373254E+01  5.942600177E+02  7.206813414E-01 
        68  1.223773642E-02 -1.650000012E-03  0.000000000E+00  1.947680868E-03  4.010331742E+01  5.942600000E+02  7.206813199E-01 
        69  1.231665286E-02 -1.650000046E-03  0.000000000E+00  1.947680926E-03  4.026489077E+01  5.942600177E+02  7.206813414E-01 
        70  1.238241385E-02 -1.649999998E-03  0.000000000E+00  4.058371500E-03  4.032903111E+01  5.942600159E+02  0.000000000E+00 
        71  1.110245300E-02 -1.649999996E-03  9.860657205E-04  1.928969302E-03  3.796059913E+01  5.942599999E+02  7.221388497E-01 
        72  1.129741118E-02 -1.649999994E-03  9.860237298E-04  1.928447481E-03  3.808680452E+01  5.942599999E+02  7.223005987E-01 
        73  1.038815708E-02 -1.649999987E-03  9.861987235E-04  1.930809253E-03  3.751199553E+01  5.942600000E+02  7.215709551E-01 
        74  8.805574705E-03 -1.650000021E-03  9.864727040E-04  1.930847176E-03  3.682642551E+01  5.942600088E+02  7.210429990E-01 
        75  9.485717905E-03 -1.650000014E-03  9.863583903E-04  1.930896476E-03  3.707664388E+01  5.942600000E+02  7.211830338E-01 
        76  9.996766092E-03 -1.649999943E-03  9.862710097E-04  1.930848697E-03  3.732021665E+01  5.942599823E+02  7.213994655E-01 
        77  7.730630904E-03 -1.650000039E-03  9.866502961E-04  1.930798011E-03  3.650990197E+01  5.942600133E+02  7.209091651E-01 
        78  8.091212126E-03 -1.649999999E-03  9.865892570E-04  1.930812293E-03  3.660953709E+01  5.942600000E+02  7.209470037E-01 
        79  8.598423723E-03 -1.649999983E-03  9.865066297E-04  1.930832899E-03  3.675300507E+01  5.942599911E+02  7.210015744E-01 
        80  1.153309208E-02 -1.650000032E-03  9.865404178E-04  1.925556961E-03  3.827718197E+01  5.942600088E+02  7.226120642E-01 
        81  7.573036225E-03 -1.650000030E-03  9.866765862E-04  1.930794455E-03  3.647462986E+01  5.942600088E+02  7.208993561E-01 
        82  5.783215100E-03 -1.650000004E-03  9.869826635E-04  1.930764869E-03  3.613899800E+01  5.942600000E+02  7.208181032E-01 
        83  6.035506259E-03 -1.649999949E-03  9.869375075E-04  1.930767401E-03  3.617509680E+01  5.942599823E+02  7.208243783E-01 
        84  6.236595952E-03 -1.650000002E-03  9.869024133E-04  1.930770303E-03  3.620977831E+01  5.942600000E+02  7.208320468E-01 
        85  6.880806203E-03 -1.649999944E-03  9.867931445E-04  1.930779242E-03  3.632464272E+01  5.942599823E+02  7.208568257E-01 
        86  1.172947215E-02 -1.650000029E-03  9.869723181E-04  1.920375468E-03  3.845729368E+01  5.942600088E+02  7.229232614E-01 
        87  4.832561986E-03 -1.649999941E-03  9.871570102E-04  1.930756370E-03  3.601361739E+01  5.942599823E+02  7.207973749E-01 
        88  5.159606270E-03 -1.650000004E-03  9.870976822E-04  1.930758890E-03  3.605338092E+01  5.942600000E+02  7.208034506E-01 
        89  3.947734035E-03 -1.649999955E-03  9.873277149E-04  1.930750250E-03  3.592281314E+01  5.942599823E+02  7.207843639E-01 
        90  4.232942892E-03 -1.649999946E-03  9.872707921E-04  1.930752071E-03  3.594841478E+01  5.942599823E+02  7.207876567E-01 
        91  1.189310817E-02 -1.649999954E-03  9.873330752E-04  1.911291757E-03  3.862738734E+01  5.942599822E+02  7.232138846E-01 
        92  2.914795121E-03 -1.649999999E-03  9.875323253E-04  1.930744329E-03  3.584446666E+01  5.942600000E+02  7.207746736E-01 
        93  3.058937451E-03 -1.650000039E-03  9.875036176E-04  1.930745110E-03  3.585284150E+01  5.942600133E+02  7.207756011E-01 
        94  3.121859929E-03 -1.649999985E-03  9.874906111E-04  1.930745405E-03  3.585713791E+01  5.942599956E+02  7.207760768E-01 
        95  1.285714191E-03 -1.649999950E-03  9.878538017E-04  1.930736499E-03  3.577146441E+01  5.942599823E+02  7.207664720E-01 
        96  1.816924899E-03 -1.650000049E-03  9.877480907E-04  1.930738978E-03  3.578888761E+01  5.942600177E+02  7.207686037E-01 
        97  2.170191834E-03 -1.650000044E-03  9.876810309E-04  1.930740591E-03  3.580408949E+01  5.942600177E+02  7.207702822E-01 
        98  1.202946298E-02 -1.649999953E-03  9.876343321E-04  1.894589074E-03  3.878369344E+01  5.942599822E+02  7.234257632E-01 
        99  1.214308635E-02 -1.649999988E-03  9.878858045E-04  1.869016062E-03  3.891656964E+01  5.942600000E+02  7.230971468E-01 
       100 -3.542577826E-04 -1.650000007E-03  9.881497301E-04  1.930730502E-03  3.575277703E+01  5.942600000E+02  7.207642722E-01 
       101  2.031021205E-04 -1.649999952E-03  9.880507533E-04  1.930732316E-03  3.575238960E+01  5.942599823E+02  7.207643273E-01 
       102  4.512136878E-04 -1.649999952E-03  9.880065915E-04  1.930733182E-03  3.575329229E+01  5.942599823E+02  7.207642515E-01 
       103  5.803136392E-04 -1.649999997E-03  9.879823968E-04  1.930733760E-03  3.575537546E+01  5.942600000E+02  7.207647962E-01 
       104  1.223776813E-02 -1.650000009E-03  9.880956075E-04  2.182950952E-03  3.902214759E+01  5.942600008E+02  7.163092801E-01 
       105 -1.968786396E-03 -1.649999951E-03  9.883890366E-04  1.930726567E-03  3.579004566E+01  5.942599823E+02  7.207695632E-01 
       106 -1.652977683E-03 -1.649999996E-03  9.883474365E-04  1.930727202E-03  3.577876620E+01  5.942600000E+02  7.207681390E-01 
       107 -1.155706233E-03 -1.649999999E-03  9.882811823E-04  1.930728227E-03  3.576484488E+01  5.942600000E+02  7.207660992E-01 
       108 -7.328599352E-04 -1.649999953E-03  9.882105507E-04  1.930729361E-03  3.575724745E+01  5.942599823E+02  7.207649213E-01 
       109  1.231666688E-02 -1.649999993E-03  9.882706246E-04  6.674126056E-03  3.909005419E+01  5.942600060E+02  6.681073752E-01 
       110 -1.238224737E-02 -1.650000051E-03  9.884166253E-04  7.763904384E-03  3.910227163E+01  5.942600569E+02  0.000000000E+00 
       111 -1.231697450E-02 -1.649999999E-03  9.884940960E-04  6.749308918E-03  3.908990593E+01  5.942600058E+02  6.698978009E-01 
       112 -2.327584992E-03 -1.649999952E-03  9.884358288E-04  1.930726032E-03  3.580716902E+01  5.942599823E+02  7.207716246E-01 
       113  1.238241434E-02 -1.650000051E-03  9.884166253E-04  7.694306278E-03  3.910060495E+01  5.942600569E+02  0.000000000E+00 
       114 -1.223864467E-02 -1.650000051E-03  9.885870638E-04  2.194663844E-03  3.901965615E+01  5.942600185E+02  7.163469847E-01 
       115 -1.214464338E-02 -1.649999994E-03  9.886984689E-04  1.865280057E-03  3.891317962E+01  5.942600000E+02  7.229184714E-01 
       116 -4.517199587E-03 -1.649999963E-03  9.887236864E-04  1.930725060E-03  3.597028967E+01  5.942599867E+02  7.207928373E-01 
       117 -4.414670316E-03 -1.650000033E-03  9.887104562E-04  1.930725048E-03  3.596005294E+01  5.942600133E+02  7.207913522E-01 
       118 -3.651595001E-03 -1.650000048E-03  9.886098026E-04  1.930724958E-03  3.589303346E+01  5.942600177E+02  7.207821343E-01 
       119 -3.094823677E-03 -1.650000049E-03  9.885372614E-04  1.930725215E-03  3.585139837E+01  5.942600177E+02  7.207769158E-01 
       120 -2.793029229E-03 -1.649999951E-03  9.884973581E-04  1.930725398E-03  3.583209575E+01  5.942599823E+02  7.207745862E-01 
       121 -1.203183536E-02 -1.650000008E-03  9.888320552E-04  1.891759016E-03  3.878030576E+01  5.942599999E+02  7.232586760E-01 
       122 -5.373331867E-03 -1.650000002E-03  9.888373881E-04  1.930726926E-03  3.607290922E+01  5.942600000E+02  7.208092399E-01 
       123 -4.706021831E-03 -1.649999978E-03  9.887486688E-04  1.930725468E-03  3.599221650E+01  5.942599911E+02  7.207963949E-01 
       124 -1.189645587E-02 -1.650000052E-03  9.889921867E-04  1.909694285E-03  3.862413380E+01  5.942600176E+02  7.230750792E-01 
       125 -5.769750150E-03 -1.650000058E-03  9.888914969E-04  1.930728647E-03  3.612922330E+01  5.942600177E+02  7.208195030E-01 
       126 -7.038392819E-03 -1.649999978E-03  9.890637268E-04  1.930738678E-03  3.634743970E+01  5.942599911E+02  7.208671531E-01 
       127 -6.777981764E-03 -1.650000004E-03  9.890279205E-04  1.930736319E-03  3.629926094E+01  5.942600000E+02  7.208562868E-01 
       128 -6.208507374E-03 -1.649999986E-03  9.889500532E-04  1.930731047E-03  3.619665005E+01  5.942600000E+02  7.208324747E-01 
       129 -1.173398426E-02 -1.649999973E-03  9.891839625E-04  1.919388864E-03  3.845391429E+01  5.942599911E+02  7.228124274E-01 
       130 -7.317166953E-03 -1.650000004E-03  9.891033433E-04  1.930743593E-03  3.640976544E+01  5.942600000E+02  7.208850476E-01 
       131 -8.713682192E-03 -1.650000053E-03  9.893002256E-04  1.930786306E-03  3.678212161E+01  5.942600177E+02  7.210187537E-01 
       132 -8.332633425E-03 -1.649999946E-03  9.892454469E-04  1.930771813E-03  3.667070576E+01  5.942599823E+02  7.209753825E-01 
       133 -7.874710432E-03 -1.649999955E-03  9.891805000E-04  1.930754689E-03  3.654158922E+01  5.942599823E+02  7.209241901E-01 
       134 -1.153899587E-02 -1.649999945E-03  9.894136741E-04  1.924909013E-03  3.827283398E+01  5.942599822E+02  7.225284413E-01 
       135 -9.733691370E-03 -1.650000000E-03  9.894490791E-04  1.930797755E-03  3.717864336E+01  5.942600000E+02  7.212715672E-01 
       136 -9.556210586E-03 -1.650000046E-03  9.894235574E-04  1.930834065E-03  3.709253339E+01  5.942600177E+02  7.211958586E-01 
       137 -9.266405885E-03 -1.650000050E-03  9.893819229E-04  1.930817224E-03  3.698353983E+01  5.942600177E+02  7.211332149E-01 
       138 -1.041736222E-02 -1.649999955E-03  9.895527119E-04  1.930666830E-03  3.751708937E+01  5.942599823E+02  7.215646868E-01 
       139 -1.130497527E-02 -1.649999952E-03  9.896886455E-04  1.928009300E-03  3.808058760E+01  5.942599822E+02  7.222416249E-01 
       140 -1.104863784E-02 -1.650000007E-03  9.896471749E-04  1.928782605E-03  3.791511898E+01  5.942599999E+02  7.220432908E-01 
       141  1.110265300E-02 -1.649999997E-03  1.972140752E-03  1.915038874E-03  3.723848271E+01  5.942600000E+02  7.234654039E-01 
       142  1.129766783E-02 -1.649999997E-03  1.972047450E-03  1.913707719E-03  3.729751483E+01  5.942600000E+02  7.237356586E-01 
       143  1.038834619E-02 -1.649999990E-03  1.972439484E-03  1.919738760E-03  3.702577878E+01  5.942600000E+02  7.225129000E-01 
       144  9.996815845E-03 -1.649999998E-03  1.972603110E-03  1.919969729E-03  3.691190017E+01  5.942600000E+02  7.222007583E-01 
       145  9.485811853E-03 -1.649999993E-03  1.972800993E-03  1.920251729E-03  3.676723893E+01  5.942600000E+02  7.218059738E-01 
       146  8.598398070E-03 -1.649999998E-03  1.973137196E-03  1.920179104E-03  3.653882244E+01  5.942600000E+02  7.214365706E-01 
       147  8.805409659E-03 -1.650000022E-03  1.973060752E-03  1.920195040E-03  3.659051667E+01  5.942600088E+02  7.215206832E-01 
       148  1.153328860E-02 -1.649999970E-03  1.973080771E-03  1.907272290E-03  3.735984337E+01  5.942599911E+02  7.242095061E-01 
       149  8.091608969E-03 -1.650000003E-03  1.973322042E-03  1.920144159E-03  3.642733995E+01  5.942600000E+02  7.213178261E-01 
       150  7.572601876E-03 -1.650000025E-03  1.973515861E-03  1.920113481E-03  3.632052472E+01  5.942600088E+02  7.212130399E-01 
       151  7.730469083E-03 -1.650000002E-03  1.973458047E-03  1.920119825E-03  3.634970842E+01  5.942600000E+02  7.212353082E-01 
