nodenumber     x-coordinate     y-coordinate     z-coordinate turb-kinetic-energy         pressure      temperature velocity-magnitude 
         1 -1.238224696E-02 -1.650000007E-03  0.000000000E+00  4.744312053E-03  4.529728719E+01  5.942600188E+02  0.000000000E+00 
         2 -1.231646687E-02 -1.649999949E-03  0.000000000E+00  2.306299562E-03  4.522645413E+01  5.942599823E+02  7.842277719E-01 
         3 -1.223752875E-02 -1.650000008E-03  0.000000000E+00  2.306299631E-03  4.504874330E+01  5.942600000E+02  7.842277952E-01 
         4 -1.214279805E-02 -1.649999951E-03  0.000000000E+00  2.306299562E-03  4.481802375E+01  5.942599823E+02  7.842277719E-01 
         5 -1.202911553E-02 -1.649999951E-03  0.000000000E+00  2.306299562E-03  4.455126316E+01  5.942599823E+02  7.842277719E-01 
         6 -1.189268779E-02 -1.650000001E-03  0.000000000E+00  2.306299631E-03  4.425676387E+01  5.942600000E+02  7.842277952E-01 
         7 -1.172896070E-02 -1.650000028E-03  0.000000000E+00  2.306299665E-03  4.394666659E+01  5.942600089E+02  7.842278069E-01 
         8 -1.153246726E-02 -1.649999968E-03  0.000000000E+00  2.306299596E-03  4.362401633E+01  5.942599911E+02  7.842277836E-01 
         9 -1.129664480E-02 -1.649999999E-03  0.000000000E+00  2.306299631E-03  4.313909439E+01  5.942600000E+02  7.842277952E-01 
        10 -1.104180182E-02 -1.649999952E-03  0.000000000E+00  2.306299562E-03  4.293842008E+01  5.942599823E+02  7.842277719E-01 
        11 -1.040965475E-02 -1.650000037E-03  0.000000000E+00  2.306299699E-03  4.245219046E+01  5.942600177E+02  7.842278186E-01 
        12 -9.727797567E-03 -1.649999974E-03  0.000000000E+00  2.306299596E-03  4.197054665E+01  5.942599911E+02  7.842277836E-01 
        13 -9.549135039E-03 -1.650000016E-03  0.000000000E+00  2.306299665E-03  4.184597930E+01  5.942600089E+02  7.842278069E-01 
        14 -9.257402967E-03 -1.649999996E-03  0.000000000E+00  2.306299631E-03  4.170085655E+01  5.942600000E+02  7.842277952E-01 
        15 -8.707201624E-03 -1.650000004E-03  0.000000000E+00  2.306299631E-03  4.143414525E+01  5.942600000E+02  7.842277952E-01 
        16 -8.327874969E-03 -1.650000002E-03  0.000000000E+00  2.306299631E-03  4.129041316E+01  5.942600000E+02  7.842277952E-01 
        17 -7.868819436E-03 -1.650000009E-03  0.000000000E+00  2.306299631E-03  4.112165628E+01  5.942600000E+02  7.842277952E-01 
        18 -7.309914944E-03 -1.650000005E-03  0.000000000E+00  2.306299631E-03  4.095573658E+01  5.942600000E+02  7.842277952E-01 
        19 -7.033056079E-03 -1.649999952E-03  0.000000000E+00  2.306299562E-03  4.087845703E+01  5.942599823E+02  7.842277719E-01 
        20 -6.774404682E-03 -1.650000049E-03  0.000000000E+00  2.306299699E-03  4.082048955E+01  5.942600177E+02  7.842278186E-01 
        21 -6.203718579E-03 -1.649999993E-03  0.000000000E+00  2.306299631E-03  4.069711252E+01  5.942600000E+02  7.842277952E-01 
        22 -5.764059055E-03 -1.650000057E-03  0.000000000E+00  2.306299699E-03  4.061477648E+01  5.942600177E+02  7.842278186E-01 
        23 -5.369046210E-03 -1.650000008E-03  0.000000000E+00  2.306299631E-03  4.054722438E+01  5.942600000E+02  7.842277952E-01 
        24 -4.703991919E-03 -1.649999998E-03  0.000000000E+00  2.306299631E-03  4.045102271E+01  5.942600000E+02  7.842277952E-01 
        25 -4.513416810E-03 -1.649999963E-03  0.000000000E+00  2.306299579E-03  4.042446998E+01  5.942599867E+02  7.842277777E-01 
        26 -4.409949101E-03 -1.650000002E-03  0.000000000E+00  2.306299631E-03  4.041222861E+01  5.942600000E+02  7.842277952E-01 
        27 -3.648226494E-03 -1.649999989E-03  0.000000000E+00  2.306299631E-03  4.033297804E+01  5.942600000E+02  7.842277952E-01 
        28 -3.090814824E-03 -1.649999990E-03  0.000000000E+00  2.306299631E-03  4.028314732E+01  5.942600000E+02  7.842277952E-01 
        29 -2.790049428E-03 -1.649999975E-03  0.000000000E+00  2.306299596E-03  4.026043535E+01  5.942599911E+02  7.842277836E-01 
        30 -2.326109559E-03 -1.650000046E-03  0.000000000E+00  2.306299699E-03  4.023170044E+01  5.942600177E+02  7.842278186E-01 
        31 -1.966101120E-03 -1.650000005E-03  0.000000000E+00  2.306299631E-03  4.021182414E+01  5.942600000E+02  7.842277952E-01 
        32 -1.649288649E-03 -1.650000004E-03  0.000000000E+00  2.306299631E-03  4.019909916E+01  5.942600000E+02  7.842277952E-01 
        33 -1.153324779E-03 -1.650000049E-03  0.000000000E+00  2.306299699E-03  4.018395256E+01  5.942600177E+02  7.842278186E-01 
        34 -7.314993435E-04 -1.649999992E-03  0.000000000E+00  2.306299631E-03  4.017550572E+01  5.942600000E+02  7.842277952E-01 
        35 -3.521276869E-04 -1.650000043E-03  0.000000000E+00  2.306299699E-03  4.017081308E+01  5.942600177E+02  7.842278186E-01 
        36  2.062356178E-04 -1.650000004E-03  0.000000000E+00  2.306299631E-03  4.017069958E+01  5.942600000E+02  7.842277952E-01 
        37  4.531226353E-04 -1.649999970E-03  0.000000000E+00  2.306299596E-03  4.017204435E+01  5.942599911E+02  7.842277836E-01 
        38  5.816147412E-04 -1.650000031E-03  0.000000000E+00  2.306299665E-03  4.017456861E+01  5.942600089E+02  7.842278069E-01 
        39  1.287381078E-03 -1.649999940E-03  0.000000000E+00  2.306299562E-03  4.019471053E+01  5.942599823E+02  7.842277719E-01 
        40  1.817906072E-03 -1.650000045E-03  0.000000000E+00  2.306299699E-03  4.021577968E+01  5.942600177E+02  7.842278186E-01 
        41  2.171618469E-03 -1.649999958E-03  0.000000000E+00  2.306299562E-03  4.023409594E+01  5.942599823E+02  7.842277719E-01 
        42  2.917015337E-03 -1.650000026E-03  0.000000000E+00  2.306299665E-03  4.028298469E+01  5.942600089E+02  7.842278069E-01 
        43  3.060138752E-03 -1.649999982E-03  0.000000000E+00  2.306299605E-03  4.029301533E+01  5.942599934E+02  7.842277865E-01 
        44  3.122627803E-03 -1.650000012E-03  0.000000000E+00  2.306299648E-03  4.029828280E+01  5.942600044E+02  7.842278011E-01 
        45  3.948750735E-03 -1.649999946E-03  0.000000000E+00  2.306299562E-03  4.037853880E+01  5.942599823E+02  7.842277719E-01 
        46  4.233552192E-03 -1.650000005E-03  0.000000000E+00  2.306299631E-03  4.040834507E+01  5.942600000E+02  7.842277952E-01 
        47  4.833507872E-03 -1.649999945E-03  0.000000000E+00  2.306299562E-03  4.048513475E+01  5.942599823E+02  7.842277719E-01 
        48  5.160210487E-03 -1.649999946E-03  0.000000000E+00  2.306299562E-03  4.053245442E+01  5.942599823E+02  7.842277719E-01 
        49  5.783248106E-03 -1.650000052E-03  0.000000000E+00  2.306299699E-03  4.063944850E+01  5.942600177E+02  7.842278186E-01 
        50  6.035984549E-03 -1.649999976E-03  0.000000000E+00  2.306299596E-03  4.068535016E+01  5.942599911E+02  7.842277836E-01 
        51  6.237400109E-03 -1.650000022E-03  0.000000000E+00  2.306299665E-03  4.072725662E+01  5.942600089E+02  7.842278069E-01 
        52  6.881112835E-03 -1.650000056E-03  0.000000000E+00  2.306299699E-03  4.086745934E+01  5.942600177E+02  7.842278186E-01 
        53  7.573470319E-03 -1.649999997E-03  0.000000000E+00  2.306299631E-03  4.105353088E+01  5.942600000E+02  7.842277952E-01 
        54  7.730792309E-03 -1.650000003E-03  0.000000000E+00  2.306299631E-03  4.109727835E+01  5.942600000E+02  7.842277952E-01 
        55  8.090815089E-03 -1.650000001E-03  0.000000000E+00  2.306299631E-03  4.122480135E+01  5.942600000E+02  7.842277952E-01 
        56  8.598449542E-03 -1.650000003E-03  0.000000000E+00  2.306299631E-03  4.140898114E+01  5.942600000E+02  7.842277952E-01 
        57  8.805739513E-03 -1.650000003E-03  0.000000000E+00  2.306299631E-03  4.150750611E+01  5.942600000E+02  7.842277952E-01 
        58  9.485623847E-03 -1.649999997E-03  0.000000000E+00  2.306299631E-03  4.184309133E+01  5.942600000E+02  7.842277952E-01 
        59  9.996717122E-03 -1.650000053E-03  0.000000000E+00  2.306299699E-03  4.219389206E+01  5.942600177E+02  7.842278186E-01 
        60  1.038796781E-02 -1.650000000E-03  0.000000000E+00  2.306299631E-03  4.247436614E+01  5.942600000E+02  7.842277952E-01 
        61  1.110225324E-02 -1.650000050E-03  0.000000000E+00  2.306299699E-03  4.303045645E+01  5.942600177E+02  7.842278186E-01 
        62  1.129715473E-02 -1.650000051E-03  0.000000000E+00  2.306299699E-03  4.318539242E+01  5.942600177E+02  7.842278186E-01 
        63  1.153289457E-02 -1.649999949E-03  0.000000000E+00  2.306299562E-03  4.368149122E+01  5.942599823E+02  7.842277719E-01 
        64  1.172932302E-02 -1.649999996E-03  0.000000000E+00  2.306299631E-03  4.401439601E+01  5.942600000E+02  7.842277952E-01 
        65  1.189299876E-02 -1.650000052E-03  0.000000000E+00  2.306299699E-03  4.433595457E+01  5.942600177E+02  7.842278186E-01 
        66  1.202938442E-02 -1.649999949E-03  0.000000000E+00  2.306299562E-03  4.464310373E+01  5.942599823E+02  7.842277719E-01 
        67  1.214303390E-02 -1.650000044E-03  0.000000000E+00  2.306299699E-03  4.492234317E+01  5.942600177E+02  7.842278186E-01 
        68  1.223773642E-02 -1.650000012E-03  0.000000000E+00  2.306299631E-03  4.516454992E+01  5.942600000E+02  7.842277952E-01 
        69  1.231665286E-02 -1.650000046E-03  0.000000000E+00  2.306299699E-03  4.535110564E+01  5.942600177E+02  7.842278186E-01 
        70  1.238241385E-02 -1.649999998E-03  0.000000000E+00  4.714591541E-03  4.542501205E+01  5.942600188E+02  0.000000000E+00 
        71  1.110245300E-02 -1.649999996E-03  9.860657205E-04  2.284126214E-03  4.269445224E+01  5.942599999E+02  7.857704160E-01 
        72  1.129741118E-02 -1.649999994E-03  9.860237298E-04  2.283510611E-03  4.284007727E+01  5.942599999E+02  7.859415242E-01 
        73  1.038815708E-02 -1.649999987E-03  9.861987235E-04  2.286297323E-03  4.217680073E+01  5.942600000E+02  7.851696767E-01 
        74  8.805574705E-03 -1.650000021E-03  9.864727040E-04  2.286356407E-03  4.138528347E+01  5.942600088E+02  7.846109943E-01 
        75  9.485717905E-03 -1.650000014E-03  9.863583903E-04  2.286410943E-03  4.167420479E+01  5.942600000E+02  7.847592320E-01 
        76  9.996766092E-03 -1.649999943E-03  9.862710097E-04  2.286348641E-03  4.195540765E+01  5.942599823E+02  7.849882275E-01 
        77  7.730630904E-03 -1.650000039E-03  9.866502961E-04  2.286301319E-03  4.101976705E+01  5.942600133E+02  7.844692154E-01 
        78  8.091212126E-03 -1.649999999E-03  9.865892570E-04  2.286317411E-03  4.113482792E+01  5.942600000E+02  7.845093138E-01 
        79  8.598423723E-03 -1.649999983E-03  9.865066297E-04  2.286340622E-03  4.130049673E+01  5.942599911E+02  7.845671434E-01 
        80  1.153309208E-02 -1.650000032E-03  9.865404178E-04  2.280126074E-03  4.305961016E+01  5.942600088E+02  7.862708997E-01 
        81  7.573036225E-03 -1.650000030E-03  9.866765862E-04  2.286297286E-03  4.097903934E+01  5.942600088E+02  7.844588030E-01 
        82  5.783215100E-03 -1.650000004E-03  9.869826635E-04  2.286263642E-03  4.059138787E+01  5.942600000E+02  7.843724706E-01 
        83  6.035506259E-03 -1.649999949E-03  9.869375075E-04  2.286266538E-03  4.063310007E+01  5.942599823E+02  7.843791557E-01 
        84  6.236595952E-03 -1.650000002E-03  9.869024133E-04  2.286269848E-03  4.067316477E+01  5.942600000E+02  7.843873096E-01 
        85  6.880806203E-03 -1.649999944E-03  9.867931445E-04  2.286280031E-03  4.080581932E+01  5.942599823E+02  7.844136604E-01 
        86  1.172947215E-02 -1.650000029E-03  9.869723181E-04  2.274075674E-03  4.326714353E+01  5.942600088E+02  7.865998318E-01 
        87  4.832561986E-03 -1.649999941E-03  9.871570102E-04  2.286253886E-03  4.044647703E+01  5.942599823E+02  7.843503740E-01 
        88  5.159606270E-03 -1.650000004E-03  9.870976822E-04  2.286256788E-03  4.049243798E+01  5.942600000E+02  7.843568571E-01 
        89  3.947734035E-03 -1.649999955E-03  9.873277149E-04  2.286246821E-03  4.034138449E+01  5.942599823E+02  7.843364792E-01 
        90  4.232942892E-03 -1.649999946E-03  9.872707921E-04  2.286248929E-03  4.037104219E+01  5.942599823E+02  7.843400004E-01 
        91  1.189310817E-02 -1.649999954E-03  9.873330752E-04  2.263509511E-03  4.346309525E+01  5.942599822E+02  7.869068469E-01 
        92  2.914795121E-03 -1.649999999E-03  9.875323253E-04  2.286239947E-03  4.025045741E+01  5.942600000E+02  7.843261113E-01 
        93  3.058937451E-03 -1.650000039E-03  9.875036176E-04  2.286240859E-03  4.026021446E+01  5.942600133E+02  7.843271045E-01 
        94  3.121859929E-03 -1.649999985E-03  9.874906111E-04  2.286241201E-03  4.026520685E+01  5.942599956E+02  7.843276138E-01 
        95  1.285714191E-03 -1.649999950E-03  9.878538017E-04  2.286230777E-03  4.016494573E+01  5.942599823E+02  7.843173341E-01 
        96  1.816924899E-03 -1.650000049E-03  9.877480907E-04  2.286233693E-03  4.018552631E+01  5.942600177E+02  7.843196100E-01 
        97  2.170191834E-03 -1.650000044E-03  9.876810309E-04  2.286235584E-03  4.020335324E+01  5.942600177E+02  7.843214118E-01 
        98  1.202946298E-02 -1.649999953E-03  9.876343321E-04  2.244179163E-03  4.364328583E+01  5.942599822E+02  7.871312308E-01 
        99  1.214308635E-02 -1.649999988E-03  9.878858045E-04  2.213672154E-03  4.379670929E+01  5.942600000E+02  7.867972392E-01 
       100 -3.542577826E-04 -1.650000007E-03  9.881497301E-04  2.286223676E-03  4.014151171E+01  5.942600000E+02  7.843149806E-01 
       101  2.031021205E-04 -1.649999952E-03  9.880507533E-04  2.286225835E-03  4.014177326E+01  5.942599823E+02  7.843150396E-01 
       102  4.512136878E-04 -1.649999952E-03  9.880065915E-04  2.286226865E-03  4.014312088E+01  5.942599823E+02  7.843149917E-01 
       103  5.803136392E-04 -1.649999997E-03  9.879823968E-04  2.286227548E-03  4.014566394E+01  5.942600000E+02  7.843155478E-01 
       104  1.223776813E-02 -1.650000009E-03  9.880956075E-04  2.554345564E-03  4.391884015E+01  5.942600010E+02  7.796800739E-01 
       105 -1.968786396E-03 -1.649999951E-03  9.883890366E-04  2.286218915E-03  4.018201005E+01  5.942599823E+02  7.843206822E-01 
       106 -1.652977683E-03 -1.649999996E-03  9.883474365E-04  2.286219694E-03  4.016952486E+01  5.942600000E+02  7.843191274E-01 
       107 -1.155706233E-03 -1.649999999E-03  9.882811823E-04  2.286220943E-03  4.015426876E+01  5.942600000E+02  7.843168713E-01 
       108 -7.328599352E-04 -1.649999953E-03  9.882105507E-04  2.286222309E-03  4.014613094E+01  5.942599823E+02  7.843156576E-01 
       109  1.231666688E-02 -1.649999993E-03  9.882706246E-04  7.708651546E-03  4.399735602E+01  5.942600069E+02  7.284744300E-01 
       110 -1.238224737E-02 -1.650000051E-03  9.884166253E-04  8.960144429E-03  4.399542076E+01  5.942600640E+02  0.000000000E+00 
       111 -1.231697450E-02 -1.649999999E-03  9.884940960E-04  7.794326852E-03  4.398115216E+01  5.942600067E+02  7.304026898E-01 
       112 -2.327584992E-03 -1.649999952E-03  9.884358288E-04  2.286218247E-03  4.020112026E+01  5.942599823E+02  7.843229255E-01 
       113  1.238241434E-02 -1.650000051E-03  9.884166253E-04  8.880827505E-03  4.400954958E+01  5.942600640E+02  0.000000000E+00 
       114 -1.223864467E-02 -1.650000051E-03  9.885870638E-04  2.567011135E-03  4.389994999E+01  5.942600186E+02  7.797188222E-01 
       115 -1.214464338E-02 -1.649999994E-03  9.886984689E-04  2.209135800E-03  4.377664834E+01  5.942600000E+02  7.866057941E-01 
       116 -4.517199587E-03 -1.649999963E-03  9.887236864E-04  2.286216749E-03  4.038499491E+01  5.942599867E+02  7.843459164E-01 
       117 -4.414670316E-03 -1.650000033E-03  9.887104562E-04  2.286216759E-03  4.037339196E+01  5.942600133E+02  7.843443121E-01 
       118 -3.651595001E-03 -1.650000048E-03  9.886098026E-04  2.286216795E-03  4.029762453E+01  5.942600177E+02  7.843343319E-01 
       119 -3.094823677E-03 -1.650000049E-03  9.885372614E-04  2.286217187E-03  4.025069375E+01  5.942600177E+02  7.843286794E-01 
       120 -2.793029229E-03 -1.649999951E-03  9.884973581E-04  2.286217444E-03  4.022901324E+01  5.942599823E+02  7.843261518E-01 
       121 -1.203183536E-02 -1.650000008E-03  9.888320552E-04  2.240916402E-03  4.362332140E+01  5.942599999E+02  7.869547000E-01 
       122 -5.373331867E-03 -1.650000002E-03  9.888373881E-04  2.286218719E-03  4.050163291E+01  5.942600000E+02  7.843636317E-01 
       123 -4.706021831E-03 -1.649999978E-03  9.887486688E-04  2.286217180E-03  4.040991192E+01  5.942599911E+02  7.843497589E-01 
       124 -1.189645587E-02 -1.650000052E-03  9.889921867E-04  2.261663899E-03  4.344321032E+01  5.942600176E+02  7.867588129E-01 
       125 -5.769750150E-03 -1.650000058E-03  9.888914969E-04  2.286220612E-03  4.056583819E+01  5.942600177E+02  7.843746969E-01 
       126 -7.038392819E-03 -1.649999978E-03  9.890637268E-04  2.286231818E-03  4.081543847E+01  5.942599911E+02  7.844258188E-01 
       127 -6.777981764E-03 -1.650000004E-03  9.890279205E-04  2.286229174E-03  4.076028000E+01  5.942600000E+02  7.844141676E-01 
       128 -6.208507374E-03 -1.649999986E-03  9.889500532E-04  2.286223262E-03  4.064280181E+01  5.942600000E+02  7.843886501E-01 
       129 -1.173398426E-02 -1.649999973E-03  9.891839625E-04  2.272932851E-03  4.324705754E+01  5.942599911E+02  7.864803186E-01 
       130 -7.317166953E-03 -1.650000004E-03  9.891033433E-04  2.286237365E-03  4.088703053E+01  5.942600000E+02  7.844448987E-01 
       131 -8.713682192E-03 -1.650000053E-03  9.893002256E-04  2.286285390E-03  4.131566322E+01  5.942600177E+02  7.845868098E-01 
       132 -8.332633425E-03 -1.649999946E-03  9.892454469E-04  2.286269097E-03  4.118727032E+01  5.942599823E+02  7.845408450E-01 
       133 -7.874710432E-03 -1.649999955E-03  9.891805000E-04  2.286249874E-03  4.103850721E+01  5.942599823E+02  7.844865914E-01 
       134 -1.153899587E-02 -1.649999945E-03  9.894136741E-04  2.279374200E-03  4.303826352E+01  5.942599822E+02  7.861796290E-01 
       135 -9.733691370E-03 -1.650000000E-03  9.894490791E-04  2.286292551E-03  4.177368960E+01  5.942600000E+02  7.848535426E-01 
       136 -9.556210586E-03 -1.650000046E-03  9.894235574E-04  2.286337325E-03  4.167415817E+01  5.942600177E+02  7.847737338E-01 
       137 -9.266405885E-03 -1.650000050E-03  9.893819229E-04  2.286319031E-03  4.154829423E+01  5.942600177E+02  7.847076083E-01 
       138 -1.041736222E-02 -1.649999955E-03  9.895527119E-04  2.286130495E-03  4.216501697E+01  5.942599822E+02  7.851624120E-01 
       139 -1.130497527E-02 -1.649999952E-03  9.896886455E-04  2.283001199E-03  4.281635297E+01  5.942599822E+02  7.858764435E-01 
       140 -1.104863784E-02 -1.650000007E-03  9.896471749E-04  2.283911819E-03  4.262506916E+01  5.942599999E+02  7.856672552E-01 
       141  1.110265300E-02 -1.649999997E-03  1.972140752E-03  2.267652226E-03  4.186279203E+01  5.942600000E+02  7.871745230E-01 
       142  1.129766783E-02 -1.649999997E-03  1.972047450E-03  2.266087197E-03  4.193115284E+01  5.942600000E+02  7.874603360E-01 
       143  1.038834619E-02 -1.649999990E-03  1.972439484E-03  2.273178412E-03  4.161646493E+01  5.942600000E+02  7.861672079E-01 
       144  9.996815845E-03 -1.649999998E-03  1.972603110E-03  2.273456710E-03  4.148474238E+01  5.942600000E+02  7.858369979E-01 
       145  9.485811853E-03 -1.649999993E-03  1.972800993E-03  2.273796641E-03  4.131739756E+01  5.942600000E+02  7.854193593E-01 
       146  8.598398070E-03 -1.649999998E-03  1.973137196E-03  2.273718569E-03  4.105343663E+01  5.942600000E+02  7.850282372E-01 
       147  8.805409659E-03 -1.650000022E-03  1.973060752E-03  2.273735659E-03  4.111318340E+01  5.942600088E+02  7.851172942E-01 
       148  1.153328860E-02 -1.649999970E-03  1.973080771E-03  2.258553318E-03  4.200341637E+01  5.942599911E+02  7.879611971E-01 
       149  8.091608969E-03 -1.650000003E-03  1.973322042E-03  2.273679247E-03  4.092469198E+01  5.942600000E+02  7.849023335E-01 
       150  7.572601876E-03 -1.650000025E-03  1.973515861E-03  2.273644654E-03  4.080134679E+01  5.942600088E+02  7.847911851E-01 
       151  7.730469083E-03 -1.650000002E-03  1.973458047E-03  2.273651854E-03  4.083503228E+01  5.942600000E+02  7.848148394E-01 
