nodenumber     x-coordinate     y-coordinate     z-coordinate turb-kinetic-energy         pressure      temperature velocity-magnitude 
         1 -1.238224696E-02 -1.650000007E-03  0.000000000E+00  4.636684540E-03  4.446266085E+01  5.942600183E+02  0.000000000E+00 
         2 -1.231646687E-02 -1.649999949E-03  0.000000000E+00  2.247386204E-03  4.439333808E+01  5.942599823E+02  7.741466075E-01 
         3 -1.223752875E-02 -1.650000008E-03  0.000000000E+00  2.247386271E-03  4.421946484E+01  5.942600000E+02  7.741466306E-01 
         4 -1.214279805E-02 -1.649999951E-03  0.000000000E+00  2.247386204E-03  4.399376104E+01  5.942599823E+02  7.741466075E-01 
         5 -1.202911553E-02 -1.649999951E-03  0.000000000E+00  2.247386204E-03  4.373274663E+01  5.942599823E+02  7.741466075E-01 
         6 -1.189268779E-02 -1.650000001E-03  0.000000000E+00  2.247386271E-03  4.344453841E+01  5.942600000E+02  7.741466306E-01 
         7 -1.172896070E-02 -1.650000028E-03  0.000000000E+00  2.247386305E-03  4.314106081E+01  5.942600089E+02  7.741466422E-01 
         8 -1.153246726E-02 -1.649999968E-03  0.000000000E+00  2.247386238E-03  4.282531757E+01  5.942599911E+02  7.741466191E-01 
         9 -1.129664480E-02 -1.649999999E-03  0.000000000E+00  2.247386271E-03  4.235082683E+01  5.942600000E+02  7.741466306E-01 
        10 -1.104180182E-02 -1.649999952E-03  0.000000000E+00  2.247386204E-03  4.215448722E+01  5.942599823E+02  7.741466075E-01 
        11 -1.040965475E-02 -1.650000037E-03  0.000000000E+00  2.247386338E-03  4.167875974E+01  5.942600177E+02  7.741466537E-01 
        12 -9.727797567E-03 -1.649999974E-03  0.000000000E+00  2.247386238E-03  4.120756795E+01  5.942599911E+02  7.741466191E-01 
        13 -9.549135039E-03 -1.650000016E-03  0.000000000E+00  2.247386305E-03  4.108570241E+01  5.942600089E+02  7.741466422E-01 
        14 -9.257402967E-03 -1.649999996E-03  0.000000000E+00  2.247386271E-03  4.094373915E+01  5.942600000E+02  7.741466306E-01 
        15 -8.707201624E-03 -1.650000004E-03  0.000000000E+00  2.247386271E-03  4.068283666E+01  5.942600000E+02  7.741466306E-01 
        16 -8.327874969E-03 -1.650000002E-03  0.000000000E+00  2.247386271E-03  4.054223326E+01  5.942600000E+02  7.741466306E-01 
        17 -7.868819436E-03 -1.650000009E-03  0.000000000E+00  2.247386271E-03  4.037714603E+01  5.942600000E+02  7.741466306E-01 
        18 -7.309914944E-03 -1.650000005E-03  0.000000000E+00  2.247386271E-03  4.021481545E+01  5.942600000E+02  7.741466306E-01 
        19 -7.033056079E-03 -1.649999952E-03  0.000000000E+00  2.247386204E-03  4.013920652E+01  5.942599823E+02  7.741466075E-01 
        20 -6.774404682E-03 -1.650000049E-03  0.000000000E+00  2.247386338E-03  4.008247854E+01  5.942600177E+02  7.741466537E-01 
        21 -6.203718579E-03 -1.649999993E-03  0.000000000E+00  2.247386271E-03  3.996173768E+01  5.942600000E+02  7.741466306E-01 
        22 -5.764059055E-03 -1.650000057E-03  0.000000000E+00  2.247386338E-03  3.988113722E+01  5.942600177E+02  7.741466537E-01 
        23 -5.369046210E-03 -1.650000008E-03  0.000000000E+00  2.247386271E-03  3.981500199E+01  5.942600000E+02  7.741466306E-01 
        24 -4.703991919E-03 -1.649999998E-03  0.000000000E+00  2.247386271E-03  3.972078225E+01  5.942600000E+02  7.741466306E-01 
        25 -4.513416810E-03 -1.649999963E-03  0.000000000E+00  2.247386221E-03  3.969477544E+01  5.942599867E+02  7.741466133E-01 
        26 -4.409949101E-03 -1.650000002E-03  0.000000000E+00  2.247386271E-03  3.968278121E+01  5.942600000E+02  7.741466306E-01 
        27 -3.648226494E-03 -1.649999989E-03  0.000000000E+00  2.247386271E-03  3.960510476E+01  5.942600000E+02  7.741466306E-01 
        28 -3.090814824E-03 -1.649999990E-03  0.000000000E+00  2.247386271E-03  3.955624006E+01  5.942600000E+02  7.741466306E-01 
        29 -2.790049428E-03 -1.649999975E-03  0.000000000E+00  2.247386238E-03  3.953395640E+01  5.942599911E+02  7.741466191E-01 
        30 -2.326109559E-03 -1.650000046E-03  0.000000000E+00  2.247386338E-03  3.950574450E+01  5.942600177E+02  7.741466537E-01 
        31 -1.966101120E-03 -1.650000005E-03  0.000000000E+00  2.247386271E-03  3.948622151E+01  5.942600000E+02  7.741466306E-01 
        32 -1.649288649E-03 -1.650000004E-03  0.000000000E+00  2.247386271E-03  3.947370414E+01  5.942600000E+02  7.741466306E-01 
        33 -1.153324779E-03 -1.650000049E-03  0.000000000E+00  2.247386338E-03  3.945877841E+01  5.942600177E+02  7.741466537E-01 
        34 -7.314993435E-04 -1.649999992E-03  0.000000000E+00  2.247386271E-03  3.945042403E+01  5.942600000E+02  7.741466306E-01 
        35 -3.521276869E-04 -1.650000043E-03  0.000000000E+00  2.247386338E-03  3.944575276E+01  5.942600177E+02  7.741466537E-01 
        36  2.062356178E-04 -1.650000004E-03  0.000000000E+00  2.247386271E-03  3.944552789E+01  5.942600000E+02  7.741466306E-01 
        37  4.531226353E-04 -1.649999970E-03  0.000000000E+00  2.247386238E-03  3.944679373E+01  5.942599911E+02  7.741466191E-01 
        38  5.816147412E-04 -1.650000031E-03  0.000000000E+00  2.247386305E-03  3.944923685E+01  5.942600089E+02  7.741466422E-01 
        39  1.287381078E-03 -1.649999940E-03  0.000000000E+00  2.247386204E-03  3.946879854E+01  5.942599823E+02  7.741466075E-01 
        40  1.817906072E-03 -1.650000045E-03  0.000000000E+00  2.247386338E-03  3.948930295E+01  5.942600177E+02  7.741466537E-01 
        41  2.171618469E-03 -1.649999958E-03  0.000000000E+00  2.247386204E-03  3.950715215E+01  5.942599823E+02  7.741466075E-01 
        42  2.917015337E-03 -1.650000026E-03  0.000000000E+00  2.247386305E-03  3.955483572E+01  5.942600089E+02  7.741466422E-01 
        43  3.060138752E-03 -1.649999982E-03  0.000000000E+00  2.247386246E-03  3.956462110E+01  5.942599934E+02  7.741466220E-01 
        44  3.122627803E-03 -1.650000012E-03  0.000000000E+00  2.247386288E-03  3.956976250E+01  5.942600044E+02  7.741466364E-01 
        45  3.948750735E-03 -1.649999946E-03  0.000000000E+00  2.247386204E-03  3.964812516E+01  5.942599823E+02  7.741466075E-01 
        46  4.233552192E-03 -1.650000005E-03  0.000000000E+00  2.247386271E-03  3.967723546E+01  5.942600000E+02  7.741466306E-01 
        47  4.833507872E-03 -1.649999945E-03  0.000000000E+00  2.247386204E-03  3.975225637E+01  5.942599823E+02  7.741466075E-01 
        48  5.160210487E-03 -1.649999946E-03  0.000000000E+00  2.247386204E-03  3.979849364E+01  5.942599823E+02  7.741466075E-01 
        49  5.783248106E-03 -1.650000052E-03  0.000000000E+00  2.247386338E-03  3.990305682E+01  5.942600177E+02  7.741466537E-01 
        50  6.035984549E-03 -1.649999976E-03  0.000000000E+00  2.247386238E-03  3.994791770E+01  5.942599911E+02  7.741466191E-01 
        51  6.237400109E-03 -1.650000022E-03  0.000000000E+00  2.247386305E-03  3.998888199E+01  5.942600089E+02  7.741466422E-01 
        52  6.881112835E-03 -1.650000056E-03  0.000000000E+00  2.247386338E-03  4.012593619E+01  5.942600177E+02  7.741466537E-01 
        53  7.573470319E-03 -1.649999997E-03  0.000000000E+00  2.247386271E-03  4.030785820E+01  5.942600000E+02  7.741466306E-01 
        54  7.730792309E-03 -1.650000003E-03  0.000000000E+00  2.247386271E-03  4.035063105E+01  5.942600000E+02  7.741466306E-01 
        55  8.090815089E-03 -1.650000001E-03  0.000000000E+00  2.247386271E-03  4.047533166E+01  5.942600000E+02  7.741466306E-01 
        56  8.598449542E-03 -1.650000003E-03  0.000000000E+00  2.247386271E-03  4.065543698E+01  5.942600000E+02  7.741466306E-01 
        57  8.805739513E-03 -1.650000003E-03  0.000000000E+00  2.247386271E-03  4.075179698E+01  5.942600000E+02  7.741466306E-01 
        58  9.485623847E-03 -1.649999997E-03  0.000000000E+00  2.247386271E-03  4.108001253E+01  5.942600000E+02  7.741466306E-01 
        59  9.996717122E-03 -1.650000053E-03  0.000000000E+00  2.247386338E-03  4.142316334E+01  5.942600177E+02  7.741466537E-01 
        60  1.038796781E-02 -1.650000000E-03  0.000000000E+00  2.247386271E-03  4.169752385E+01  5.942600000E+02  7.741466306E-01 
        61  1.110225324E-02 -1.650000050E-03  0.000000000E+00  2.247386338E-03  4.224155700E+01  5.942600177E+02  7.741466537E-01 
        62  1.129715473E-02 -1.650000051E-03  0.000000000E+00  2.247386338E-03  4.239313478E+01  5.942600177E+02  7.741466537E-01 
        63  1.153289457E-02 -1.649999949E-03  0.000000000E+00  2.247386204E-03  4.287852506E+01  5.942599823E+02  7.741466075E-01 
        64  1.172932302E-02 -1.649999996E-03  0.000000000E+00  2.247386271E-03  4.320427507E+01  5.942600000E+02  7.741466306E-01 
        65  1.189299876E-02 -1.650000052E-03  0.000000000E+00  2.247386338E-03  4.351893932E+01  5.942600177E+02  7.741466537E-01 
        66  1.202938442E-02 -1.649999949E-03  0.000000000E+00  2.247386204E-03  4.381949187E+01  5.942599823E+02  7.741466075E-01 
        67  1.214303390E-02 -1.650000044E-03  0.000000000E+00  2.247386338E-03  4.409267597E+01  5.942600177E+02  7.741466537E-01 
        68  1.223773642E-02 -1.650000012E-03  0.000000000E+00  2.247386271E-03  4.432957335E+01  5.942600000E+02  7.741466306E-01 
        69  1.231665286E-02 -1.650000046E-03  0.000000000E+00  2.247386338E-03  4.451206475E+01  5.942600177E+02  7.741466537E-01 
        70  1.238241385E-02 -1.649999998E-03  0.000000000E+00  4.607514806E-03  4.458438356E+01  5.942600184E+02  0.000000000E+00 
        71  1.110245300E-02 -1.649999996E-03  9.860657205E-04  2.225781693E-03  4.191271767E+01  5.942599999E+02  7.756759222E-01 
        72  1.129741118E-02 -1.649999994E-03  9.860237298E-04  2.225181484E-03  4.205517308E+01  5.942599999E+02  7.758455589E-01 
        73  1.038815708E-02 -1.649999987E-03  9.861987235E-04  2.227898440E-03  4.140633666E+01  5.942600000E+02  7.750803468E-01 
        74  8.805574705E-03 -1.650000021E-03  9.864727040E-04  2.227953922E-03  4.063220682E+01  5.942600088E+02  7.745264643E-01 
        75  9.485717905E-03 -1.650000014E-03  9.863583903E-04  2.228007633E-03  4.091475569E+01  5.942600000E+02  7.746734273E-01 
        76  9.996766092E-03 -1.649999943E-03  9.862710097E-04  2.227947767E-03  4.118979431E+01  5.942599823E+02  7.749004565E-01 
        77  7.730630904E-03 -1.650000039E-03  9.866502961E-04  2.227899779E-03  4.027479474E+01  5.942600133E+02  7.743859102E-01 
        78  8.091212126E-03 -1.649999999E-03  9.865892570E-04  2.227915580E-03  4.038730023E+01  5.942600000E+02  7.744256614E-01 
        79  8.598423723E-03 -1.649999983E-03  9.865066297E-04  2.227938374E-03  4.054929155E+01  5.942599911E+02  7.744829904E-01 
        80  1.153309208E-02 -1.650000032E-03  9.865404178E-04  2.221877839E-03  4.226995757E+01  5.942600088E+02  7.761721122E-01 
        81  7.573036225E-03 -1.650000030E-03  9.866765862E-04  2.227895823E-03  4.023497678E+01  5.942600088E+02  7.743755893E-01 
        82  5.783215100E-03 -1.650000004E-03  9.869826635E-04  2.227862838E-03  3.985603611E+01  5.942600000E+02  7.742900209E-01 
        83  6.035506259E-03 -1.649999949E-03  9.869375075E-04  2.227865674E-03  3.989680033E+01  5.942599823E+02  7.742966458E-01 
        84  6.236595952E-03 -1.650000002E-03  9.869024133E-04  2.227868918E-03  3.993596185E+01  5.942600000E+02  7.743047271E-01 
        85  6.880806203E-03 -1.649999944E-03  9.867931445E-04  2.227878898E-03  4.006563021E+01  5.942599823E+02  7.743308433E-01 
        86  1.172947215E-02 -1.650000029E-03  9.869723181E-04  2.215969597E-03  4.247303026E+01  5.942600088E+02  7.764982508E-01 
        87  4.832561986E-03 -1.649999941E-03  9.871570102E-04  2.227853289E-03  3.971443145E+01  5.942599823E+02  7.742681251E-01 
        88  5.159606270E-03 -1.650000004E-03  9.870976822E-04  2.227856128E-03  3.975933927E+01  5.942600000E+02  7.742745487E-01 
        89  3.947734035E-03 -1.649999955E-03  9.873277149E-04  2.227846381E-03  3.961177402E+01  5.942599823E+02  7.742543584E-01 
        90  4.232942892E-03 -1.649999946E-03  9.872707921E-04  2.227848441E-03  3.964073780E+01  5.942599823E+02  7.742578469E-01 
        91  1.189310817E-02 -1.649999954E-03  9.873330752E-04  2.205645709E-03  4.266477820E+01  5.942599822E+02  7.768026897E-01 
        92  2.914795121E-03 -1.649999999E-03  9.875323253E-04  2.227839665E-03  3.952300804E+01  5.942600000E+02  7.742440873E-01 
        93  3.058937451E-03 -1.650000039E-03  9.875036176E-04  2.227840555E-03  3.953252602E+01  5.942600133E+02  7.742450713E-01 
        94  3.121859929E-03 -1.649999985E-03  9.874906111E-04  2.227840889E-03  3.953739852E+01  5.942599956E+02  7.742455758E-01 
        95  1.285714191E-03 -1.649999950E-03  9.878538017E-04  2.227830718E-03  3.943966897E+01  5.942599823E+02  7.742353897E-01 
        96  1.816924899E-03 -1.650000049E-03  9.877480907E-04  2.227833562E-03  3.945969702E+01  5.942600177E+02  7.742376456E-01 
        97  2.170191834E-03 -1.650000044E-03  9.876810309E-04  2.227835406E-03  3.947706782E+01  5.942600177E+02  7.742394305E-01 
        98  1.202946298E-02 -1.649999953E-03  9.876343321E-04  2.186744031E-03  4.284108660E+01  5.942599822E+02  7.770251288E-01 
        99  1.214308635E-02 -1.649999988E-03  9.878858045E-04  2.157038168E-03  4.299116796E+01  5.942600000E+02  7.766920674E-01 
       100 -3.542577826E-04 -1.650000007E-03  9.881497301E-04  2.227823799E-03  3.941708493E+01  5.942600000E+02  7.742330529E-01 
       101  2.031021205E-04 -1.649999952E-03  9.880507533E-04  2.227825901E-03  3.941722282E+01  5.942599823E+02  7.742331132E-01 
       102  4.512136878E-04 -1.649999952E-03  9.880065915E-04  2.227826904E-03  3.941848863E+01  5.942599823E+02  7.742330617E-01 
       103  5.803136392E-04 -1.649999997E-03  9.879823968E-04  2.227827570E-03  3.942094982E+01  5.942600000E+02  7.742336167E-01 
       104  1.223776813E-02 -1.650000009E-03  9.880956075E-04  2.493470182E-03  4.311060498E+01  5.942600009E+02  7.696267470E-01 
       105 -1.968786396E-03 -1.649999951E-03  9.883890366E-04  2.227819172E-03  3.945706058E+01  5.942599823E+02  7.742386814E-01 
       106 -1.652977683E-03 -1.649999996E-03  9.883474365E-04  2.227819928E-03  3.944477632E+01  5.942600000E+02  7.742371486E-01 
       107 -1.155706233E-03 -1.649999999E-03  9.882811823E-04  2.227821140E-03  3.942974023E+01  5.942600000E+02  7.742349308E-01 
       108 -7.328599352E-04 -1.649999953E-03  9.882105507E-04  2.227822469E-03  3.942168629E+01  5.942599823E+02  7.742337239E-01 
       109  1.231666688E-02 -1.649999993E-03  9.882706246E-04  7.540276110E-03  4.318739605E+01  5.942600068E+02  7.188928108E-01 
       110 -1.238224737E-02 -1.650000051E-03  9.884166253E-04  8.765549656E-03  4.318854825E+01  5.942600628E+02  0.000000000E+00 
       111 -1.231697450E-02 -1.649999999E-03  9.884940960E-04  7.624253252E-03  4.317458808E+01  5.942600065E+02  7.207994789E-01 
       112 -2.327584992E-03 -1.649999952E-03  9.884358288E-04  2.227818525E-03  3.947583550E+01  5.942599823E+02  7.742408953E-01 
       113  1.238241434E-02 -1.650000051E-03  9.884166253E-04  8.687805451E-03  4.319932267E+01  5.942600629E+02  0.000000000E+00 
       114 -1.223864467E-02 -1.650000051E-03  9.885870638E-04  2.505983683E-03  4.309516611E+01  5.942600186E+02  7.696653316E-01 
       115 -1.214464338E-02 -1.649999994E-03  9.886984689E-04  2.152632299E-03  4.297461133E+01  5.942600000E+02  7.765027386E-01 
       116 -4.517199587E-03 -1.649999963E-03  9.887236864E-04  2.227817107E-03  3.965618117E+01  5.942599867E+02  7.742636175E-01 
       117 -4.414670316E-03 -1.650000033E-03  9.887104562E-04  2.227817114E-03  3.964481049E+01  5.942600133E+02  7.742620305E-01 
       118 -3.651595001E-03 -1.650000048E-03  9.886098026E-04  2.227817131E-03  3.957053396E+01  5.942600177E+02  7.742521627E-01 
       119 -3.094823677E-03 -1.650000049E-03  9.885372614E-04  2.227817503E-03  3.952450321E+01  5.942600177E+02  7.742465758E-01 
       120 -2.793029229E-03 -1.649999951E-03  9.884973581E-04  2.227817749E-03  3.950322693E+01  5.942599823E+02  7.742440788E-01 
       121 -1.203183536E-02 -1.650000008E-03  9.888320552E-04  2.183552115E-03  4.282461697E+01  5.942599999E+02  7.768508118E-01 
       122 -5.373331867E-03 -1.650000002E-03  9.888373881E-04  2.227819057E-03  3.977043355E+01  5.942600000E+02  7.742811463E-01 
       123 -4.706021831E-03 -1.649999978E-03  9.887486688E-04  2.227817534E-03  3.968058948E+01  5.942599911E+02  7.742674195E-01 
       124 -1.189645587E-02 -1.650000052E-03  9.889921867E-04  2.203840970E-03  4.264838559E+01  5.942600176E+02  7.766564719E-01 
       125 -5.769750150E-03 -1.650000058E-03  9.888914969E-04  2.227820922E-03  3.983329899E+01  5.942600177E+02  7.742921006E-01 
       126 -7.038392819E-03 -1.649999978E-03  9.890637268E-04  2.227831943E-03  4.007760314E+01  5.942599911E+02  7.743427424E-01 
       127 -6.777981764E-03 -1.650000004E-03  9.890279205E-04  2.227829344E-03  4.002362146E+01  5.942600000E+02  7.743311991E-01 
       128 -6.208507374E-03 -1.649999986E-03  9.889500532E-04  2.227823532E-03  3.990864765E+01  5.942600000E+02  7.743059173E-01 
       129 -1.173398426E-02 -1.649999973E-03  9.891839625E-04  2.214852621E-03  4.245643005E+01  5.942599911E+02  7.763801828E-01 
       130 -7.317166953E-03 -1.650000004E-03  9.891033433E-04  2.227837394E-03  4.014764675E+01  5.942600000E+02  7.743616566E-01 
       131 -8.713682192E-03 -1.650000053E-03  9.893002256E-04  2.227884614E-03  4.056695273E+01  5.942600177E+02  7.745023700E-01 
       132 -8.332633425E-03 -1.649999946E-03  9.892454469E-04  2.227868593E-03  4.044136327E+01  5.942599823E+02  7.744567883E-01 
       133 -7.874710432E-03 -1.649999955E-03  9.891805000E-04  2.227849688E-03  4.029584449E+01  5.942599823E+02  7.744029880E-01 
       134 -1.153899587E-02 -1.649999945E-03  9.894136741E-04  2.221143208E-03  4.225211175E+01  5.942599822E+02  7.760819404E-01 
       135 -9.733691370E-03 -1.650000000E-03  9.894490791E-04  2.227892587E-03  4.101496277E+01  5.942600000E+02  7.747668951E-01 
       136 -9.556210586E-03 -1.650000046E-03  9.894235574E-04  2.227935950E-03  4.091760192E+01  5.942600177E+02  7.746877510E-01 
       137 -9.266405885E-03 -1.650000050E-03  9.893819229E-04  2.227917866E-03  4.079449177E+01  5.942600177E+02  7.746221724E-01 
       138 -1.041736222E-02 -1.649999955E-03  9.895527119E-04  2.227735724E-03  4.139775199E+01  5.942599822E+02  7.750731949E-01 
       139 -1.130497527E-02 -1.649999952E-03  9.896886455E-04  2.224683915E-03  4.203497453E+01  5.942599822E+02  7.757812664E-01 
       140 -1.104863784E-02 -1.650000007E-03  9.896471749E-04  2.225571983E-03  4.184783530E+01  5.942599999E+02  7.755738236E-01 
       141  1.110265300E-02 -1.649999997E-03  1.972140752E-03  2.209725459E-03  4.109880981E+01  5.942600000E+02  7.770679473E-01 
       142  1.129766783E-02 -1.649999997E-03  1.972047450E-03  2.208198775E-03  4.116563763E+01  5.942600000E+02  7.773513211E-01 
       143  1.038834619E-02 -1.649999990E-03  1.972439484E-03  2.215116161E-03  4.085800801E+01  5.942600000E+02  7.760692243E-01 
       144  9.996815845E-03 -1.649999998E-03  1.972603110E-03  2.215386631E-03  4.072923036E+01  5.942600000E+02  7.757418341E-01 
       145  9.485811853E-03 -1.649999993E-03  1.972800993E-03  2.215716978E-03  4.056562942E+01  5.942600000E+02  7.753277624E-01 
       146  8.598398070E-03 -1.649999998E-03  1.973137196E-03  2.215639711E-03  4.030756856E+01  5.942600000E+02  7.749400015E-01 
       147  8.805409659E-03 -1.650000022E-03  1.973060752E-03  2.215656632E-03  4.036597862E+01  5.942600088E+02  7.750282934E-01 
       148  1.153328860E-02 -1.649999970E-03  1.973080771E-03  2.200844731E-03  4.123627346E+01  5.942599911E+02  7.778479391E-01 
       149  8.091608969E-03 -1.650000003E-03  1.973322042E-03  2.215601083E-03  4.018170838E+01  5.942600000E+02  7.748151914E-01 
       150  7.572601876E-03 -1.650000025E-03  1.973515861E-03  2.215567112E-03  4.006113074E+01  5.942600088E+02  7.747050118E-01 
       151  7.730469083E-03 -1.650000002E-03  1.973458047E-03  2.215574175E-03  4.009405868E+01  5.942600000E+02  7.747284573E-01 
