nodenumber     x-coordinate     y-coordinate     z-coordinate turb-kinetic-energy         pressure      temperature velocity-magnitude 
         1 -1.238224696E-02 -1.650000007E-03  0.000000000E+00  3.819924448E-03  3.818355934E+01  5.942600148E+02  0.000000000E+00 
         2 -1.231646687E-02 -1.649999949E-03  0.000000000E+00  1.805520289E-03  3.812578646E+01  5.942599823E+02  6.938818796E-01 
         3 -1.223752875E-02 -1.650000008E-03  0.000000000E+00  1.805520343E-03  3.798120379E+01  5.942600000E+02  6.938819002E-01 
         4 -1.214279805E-02 -1.649999951E-03  0.000000000E+00  1.805520289E-03  3.779372206E+01  5.942599823E+02  6.938818796E-01 
         5 -1.202911553E-02 -1.649999951E-03  0.000000000E+00  1.805520289E-03  3.757654843E+01  5.942599823E+02  6.938818796E-01 
         6 -1.189268779E-02 -1.650000001E-03  0.000000000E+00  1.805520343E-03  3.733640424E+01  5.942600000E+02  6.938819002E-01 
         7 -1.172896070E-02 -1.650000028E-03  0.000000000E+00  1.805520370E-03  3.708350137E+01  5.942600089E+02  6.938819106E-01 
         8 -1.153246726E-02 -1.649999968E-03  0.000000000E+00  1.805520316E-03  3.682053651E+01  5.942599911E+02  6.938818899E-01 
         9 -1.129664480E-02 -1.649999999E-03  0.000000000E+00  1.805520343E-03  3.642579464E+01  5.942600000E+02  6.938819002E-01 
        10 -1.104180182E-02 -1.649999952E-03  0.000000000E+00  1.805520289E-03  3.626260229E+01  5.942599823E+02  6.938818796E-01 
        11 -1.040965475E-02 -1.650000037E-03  0.000000000E+00  1.805520397E-03  3.586716685E+01  5.942600177E+02  6.938819209E-01 
        12 -9.727797567E-03 -1.649999974E-03  0.000000000E+00  1.805520316E-03  3.547560507E+01  5.942599911E+02  6.938818899E-01 
        13 -9.549135039E-03 -1.650000016E-03  0.000000000E+00  1.805520370E-03  3.537431986E+01  5.942600089E+02  6.938819106E-01 
        14 -9.257402967E-03 -1.649999996E-03  0.000000000E+00  1.805520343E-03  3.525616958E+01  5.942600000E+02  6.938819002E-01 
        15 -8.707201624E-03 -1.650000004E-03  0.000000000E+00  1.805520343E-03  3.503903975E+01  5.942600000E+02  6.938819002E-01 
        16 -8.327874969E-03 -1.650000002E-03  0.000000000E+00  1.805520343E-03  3.492164018E+01  5.942600000E+02  6.938819002E-01 
        17 -7.868819436E-03 -1.650000009E-03  0.000000000E+00  1.805520343E-03  3.478379013E+01  5.942600000E+02  6.938819002E-01 
        18 -7.309914944E-03 -1.650000005E-03  0.000000000E+00  1.805520343E-03  3.464769436E+01  5.942600000E+02  6.938819002E-01 
        19 -7.033056079E-03 -1.649999952E-03  0.000000000E+00  1.805520289E-03  3.458426603E+01  5.942599823E+02  6.938818796E-01 
        20 -6.774404682E-03 -1.650000049E-03  0.000000000E+00  1.805520397E-03  3.453645492E+01  5.942600177E+02  6.938819209E-01 
        21 -6.203718579E-03 -1.649999993E-03  0.000000000E+00  1.805520343E-03  3.443471152E+01  5.942600000E+02  6.938819002E-01 
        22 -5.764059055E-03 -1.650000057E-03  0.000000000E+00  1.805520397E-03  3.436651631E+01  5.942600177E+02  6.938819209E-01 
        23 -5.369046210E-03 -1.650000008E-03  0.000000000E+00  1.805520343E-03  3.431046808E+01  5.942600000E+02  6.938819002E-01 
        24 -4.703991919E-03 -1.649999998E-03  0.000000000E+00  1.805520343E-03  3.423030388E+01  5.942600000E+02  6.938819002E-01 
        25 -4.513416810E-03 -1.649999963E-03  0.000000000E+00  1.805520303E-03  3.420817262E+01  5.942599867E+02  6.938818847E-01 
        26 -4.409949101E-03 -1.650000002E-03  0.000000000E+00  1.805520343E-03  3.419793392E+01  5.942600000E+02  6.938819002E-01 
        27 -3.648226494E-03 -1.649999989E-03  0.000000000E+00  1.805520343E-03  3.413140478E+01  5.942600000E+02  6.938819002E-01 
        28 -3.090814824E-03 -1.649999990E-03  0.000000000E+00  1.805520343E-03  3.408940889E+01  5.942600000E+02  6.938819002E-01 
        29 -2.790049428E-03 -1.649999975E-03  0.000000000E+00  1.805520316E-03  3.407017325E+01  5.942599911E+02  6.938818899E-01 
        30 -2.326109559E-03 -1.650000046E-03  0.000000000E+00  1.805520397E-03  3.404571500E+01  5.942600177E+02  6.938819209E-01 
        31 -1.966101120E-03 -1.650000005E-03  0.000000000E+00  1.805520343E-03  3.402873860E+01  5.942600000E+02  6.938819002E-01 
        32 -1.649288649E-03 -1.650000004E-03  0.000000000E+00  1.805520343E-03  3.401775047E+01  5.942600000E+02  6.938819002E-01 
        33 -1.153324779E-03 -1.650000049E-03  0.000000000E+00  1.805520397E-03  3.400448876E+01  5.942600177E+02  6.938819209E-01 
        34 -7.314993435E-04 -1.649999992E-03  0.000000000E+00  1.805520343E-03  3.399689524E+01  5.942600000E+02  6.938819002E-01 
        35 -3.521276869E-04 -1.650000043E-03  0.000000000E+00  1.805520397E-03  3.399247509E+01  5.942600177E+02  6.938819209E-01 
        36  2.062356178E-04 -1.650000004E-03  0.000000000E+00  1.805520343E-03  3.399163378E+01  5.942600000E+02  6.938819002E-01 
        37  4.531226353E-04 -1.649999970E-03  0.000000000E+00  1.805520316E-03  3.399241857E+01  5.942599911E+02  6.938818899E-01 
        38  5.816147412E-04 -1.650000031E-03  0.000000000E+00  1.805520370E-03  3.399433625E+01  5.942600089E+02  6.938819106E-01 
        39  1.287381078E-03 -1.649999940E-03  0.000000000E+00  1.805520289E-03  3.401006157E+01  5.942599823E+02  6.938818796E-01 
        40  1.817906072E-03 -1.650000045E-03  0.000000000E+00  1.805520397E-03  3.402679378E+01  5.942600177E+02  6.938819209E-01 
        41  2.171618469E-03 -1.649999958E-03  0.000000000E+00  1.805520289E-03  3.404148204E+01  5.942599823E+02  6.938818796E-01 
        42  2.917015337E-03 -1.650000026E-03  0.000000000E+00  1.805520370E-03  3.408096008E+01  5.942600089E+02  6.938819106E-01 
        43  3.060138752E-03 -1.649999982E-03  0.000000000E+00  1.805520323E-03  3.408907329E+01  5.942599934E+02  6.938818925E-01 
        44  3.122627803E-03 -1.650000012E-03  0.000000000E+00  1.805520356E-03  3.409335031E+01  5.942600044E+02  6.938819054E-01 
        45  3.948750735E-03 -1.649999946E-03  0.000000000E+00  1.805520289E-03  3.415864708E+01  5.942599823E+02  6.938818796E-01 
        46  4.233552192E-03 -1.650000005E-03  0.000000000E+00  1.805520343E-03  3.418293749E+01  5.942600000E+02  6.938819002E-01 
        47  4.833507872E-03 -1.649999945E-03  0.000000000E+00  1.805520289E-03  3.424560131E+01  5.942599823E+02  6.938818796E-01 
        48  5.160210487E-03 -1.649999946E-03  0.000000000E+00  1.805520289E-03  3.428426180E+01  5.942599823E+02  6.938818796E-01 
        49  5.783248106E-03 -1.650000052E-03  0.000000000E+00  1.805520397E-03  3.437166911E+01  5.942600177E+02  6.938819209E-01 
        50  6.035984549E-03 -1.649999976E-03  0.000000000E+00  1.805520316E-03  3.440917082E+01  5.942599911E+02  6.938818899E-01 
        51  6.237400109E-03 -1.650000022E-03  0.000000000E+00  1.805520370E-03  3.444340218E+01  5.942600089E+02  6.938819106E-01 
        52  6.881112835E-03 -1.650000056E-03  0.000000000E+00  1.805520397E-03  3.455797404E+01  5.942600177E+02  6.938819209E-01 
        53  7.573470319E-03 -1.649999997E-03  0.000000000E+00  1.805520343E-03  3.470990905E+01  5.942600000E+02  6.938819002E-01 
        54  7.730792309E-03 -1.650000003E-03  0.000000000E+00  1.805520343E-03  3.474564073E+01  5.942600000E+02  6.938819002E-01 
        55  8.090815089E-03 -1.650000001E-03  0.000000000E+00  1.805520343E-03  3.484968196E+01  5.942600000E+02  6.938819002E-01 
        56  8.598449542E-03 -1.650000003E-03  0.000000000E+00  1.805520343E-03  3.499994898E+01  5.942600000E+02  6.938819002E-01 
        57  8.805739513E-03 -1.650000003E-03  0.000000000E+00  1.805520343E-03  3.508024257E+01  5.942600000E+02  6.938819002E-01 
        58  9.485623847E-03 -1.649999997E-03  0.000000000E+00  1.805520343E-03  3.535376400E+01  5.942600000E+02  6.938819002E-01 
        59  9.996717122E-03 -1.650000053E-03  0.000000000E+00  1.805520397E-03  3.563945182E+01  5.942600177E+02  6.938819209E-01 
        60  1.038796781E-02 -1.650000000E-03  0.000000000E+00  1.805520343E-03  3.586787461E+01  5.942600000E+02  6.938819002E-01 
        61  1.110225324E-02 -1.650000050E-03  0.000000000E+00  1.805520397E-03  3.632064106E+01  5.942600177E+02  6.938819209E-01 
        62  1.129715473E-02 -1.650000051E-03  0.000000000E+00  1.805520397E-03  3.644679121E+01  5.942600177E+02  6.938819209E-01 
        63  1.153289457E-02 -1.649999949E-03  0.000000000E+00  1.805520289E-03  3.685076728E+01  5.942599823E+02  6.938818796E-01 
        64  1.172932302E-02 -1.649999996E-03  0.000000000E+00  1.805520343E-03  3.712200393E+01  5.942600000E+02  6.938819002E-01 
        65  1.189299876E-02 -1.650000052E-03  0.000000000E+00  1.805520397E-03  3.738409781E+01  5.942600177E+02  6.938819209E-01 
        66  1.202938442E-02 -1.649999949E-03  0.000000000E+00  1.805520289E-03  3.763432798E+01  5.942599823E+02  6.938818796E-01 
        67  1.214303390E-02 -1.650000044E-03  0.000000000E+00  1.805520397E-03  3.786132892E+01  5.942600177E+02  6.938819209E-01 
        68  1.223773642E-02 -1.650000012E-03  0.000000000E+00  1.805520343E-03  3.805775943E+01  5.942600000E+02  6.938819002E-01 
        69  1.231665286E-02 -1.650000046E-03  0.000000000E+00  1.805520397E-03  3.820925545E+01  5.942600177E+02  6.938819209E-01 
        70  1.238241385E-02 -1.649999998E-03  0.000000000E+00  3.795049379E-03  3.826945211E+01  5.942600148E+02  0.000000000E+00 
        71  1.110245300E-02 -1.649999996E-03  9.860657205E-04  1.788179664E-03  3.604708939E+01  5.942599999E+02  6.953020646E-01 
        72  1.129741118E-02 -1.649999994E-03  9.860237298E-04  1.787694926E-03  3.616562660E+01  5.942599999E+02  6.954597723E-01 
        73  1.038815708E-02 -1.649999987E-03  9.861987235E-04  1.789888672E-03  3.562573216E+01  5.942600000E+02  6.947483626E-01 
        74  8.805574705E-03 -1.650000021E-03  9.864727040E-04  1.789919283E-03  3.498079836E+01  5.942600088E+02  6.942343079E-01 
        75  9.485717905E-03 -1.650000014E-03  9.863583903E-04  1.789966244E-03  3.521639793E+01  5.942600000E+02  6.943705089E-01 
        76  9.996766092E-03 -1.649999943E-03  9.862710097E-04  1.789923773E-03  3.544541542E+01  5.942599823E+02  6.945813242E-01 
        77  7.730630904E-03 -1.650000039E-03  9.866502961E-04  1.789872623E-03  3.468246527E+01  5.942600133E+02  6.941042731E-01 
        78  8.091212126E-03 -1.649999999E-03  9.865892570E-04  1.789886155E-03  3.477640749E+01  5.942600000E+02  6.941410189E-01 
        79  8.598423723E-03 -1.649999983E-03  9.865066297E-04  1.789905683E-03  3.491167012E+01  5.942599911E+02  6.941940156E-01 
        80  1.153309208E-02 -1.650000032E-03  9.865404178E-04  1.785001240E-03  3.634435254E+01  5.942600088E+02  6.957636143E-01 
        81  7.573036225E-03 -1.650000030E-03  9.866765862E-04  1.789869252E-03  3.464917228E+01  5.942600088E+02  6.940947562E-01 
        82  5.783215100E-03 -1.650000004E-03  9.869826635E-04  1.789841214E-03  3.433227204E+01  5.942600000E+02  6.940159201E-01 
        83  6.035506259E-03 -1.649999949E-03  9.869375075E-04  1.789843613E-03  3.436637430E+01  5.942599823E+02  6.940220091E-01 
        84  6.236595952E-03 -1.650000002E-03  9.869024133E-04  1.789846364E-03  3.439912617E+01  5.942600000E+02  6.940294482E-01 
        85  6.880806203E-03 -1.649999944E-03  9.867931445E-04  1.789854839E-03  3.450761556E+01  5.942599823E+02  6.940534852E-01 
        86  1.172947215E-02 -1.650000029E-03  9.869723181E-04  1.780166666E-03  3.651343671E+01  5.942600088E+02  6.960672057E-01 
        87  4.832561986E-03 -1.649999941E-03  9.871570102E-04  1.789833172E-03  3.421380709E+01  5.942599823E+02  6.939957967E-01 
        88  5.159606270E-03 -1.650000004E-03  9.870976822E-04  1.789835553E-03  3.425138172E+01  5.942600000E+02  6.940017000E-01 
        89  3.947734035E-03 -1.649999955E-03  9.873277149E-04  1.789827396E-03  3.412803225E+01  5.942599823E+02  6.939831508E-01 
        90  4.232942892E-03 -1.649999946E-03  9.872707921E-04  1.789829112E-03  3.415221360E+01  5.942599823E+02  6.939863532E-01 
        91  1.189310817E-02 -1.649999954E-03  9.873330752E-04  1.771676110E-03  3.667309720E+01  5.942599822E+02  6.963506603E-01 
        92  2.914795121E-03 -1.649999999E-03  9.875323253E-04  1.789821825E-03  3.405408324E+01  5.942600000E+02  6.939737180E-01 
        93  3.058937451E-03 -1.650000039E-03  9.875036176E-04  1.789822557E-03  3.406197816E+01  5.942600133E+02  6.939746219E-01 
        94  3.121859929E-03 -1.649999985E-03  9.874906111E-04  1.789822834E-03  3.406603248E+01  5.942599956E+02  6.939750855E-01 
        95  1.285714191E-03 -1.649999950E-03  9.878538017E-04  1.789814500E-03  3.398538406E+01  5.942599823E+02  6.939657163E-01 
        96  1.816924899E-03 -1.650000049E-03  9.877480907E-04  1.789816812E-03  3.400173564E+01  5.942600177E+02  6.939678012E-01 
        97  2.170191834E-03 -1.650000044E-03  9.876810309E-04  1.789818320E-03  3.401603375E+01  5.942600177E+02  6.939694363E-01 
        98  1.202946298E-02 -1.649999953E-03  9.876343321E-04  1.756028395E-03  3.681976325E+01  5.942599822E+02  6.965566844E-01 
        99  1.214308635E-02 -1.649999988E-03  9.878858045E-04  1.732454503E-03  3.694436930E+01  5.942600000E+02  6.962302973E-01 
       100 -3.542577826E-04 -1.650000007E-03  9.881497301E-04  1.789808932E-03  3.396821061E+01  5.942600000E+02  6.939635639E-01 
       101  2.031021205E-04 -1.649999952E-03  9.880507533E-04  1.789810610E-03  3.396765694E+01  5.942599823E+02  6.939636206E-01 
       102  4.512136878E-04 -1.649999952E-03  9.880065915E-04  1.789811412E-03  3.396842904E+01  5.942599823E+02  6.939635370E-01 
       103  5.803136392E-04 -1.649999997E-03  9.879823968E-04  1.789811949E-03  3.397036213E+01  5.942600000E+02  6.939640780E-01 
       104  1.223776813E-02 -1.650000009E-03  9.880956075E-04  2.035115444E-03  3.704328561E+01  5.942600008E+02  6.895832447E-01 
       105 -1.968786396E-03 -1.649999951E-03  9.883890366E-04  1.789805331E-03  3.400411191E+01  5.942599823E+02  6.939687161E-01 
       106 -1.652977683E-03 -1.649999996E-03  9.883474365E-04  1.789805907E-03  3.399330775E+01  5.942600000E+02  6.939673365E-01 
       107 -1.155706233E-03 -1.649999999E-03  9.882811823E-04  1.789806841E-03  3.397993072E+01  5.942600000E+02  6.939653660E-01 
       108 -7.328599352E-04 -1.649999953E-03  9.882105507E-04  1.789807881E-03  3.397258100E+01  5.942599823E+02  6.939642025E-01 
       109  1.231666688E-02 -1.649999993E-03  9.882706246E-04  6.257096131E-03  3.710691466E+01  5.942600056E+02  6.426709780E-01 
       110 -1.238224737E-02 -1.650000051E-03  9.884166253E-04  7.281305029E-03  3.712074036E+01  5.942600541E+02  0.000000000E+00 
       111 -1.231697450E-02 -1.649999999E-03  9.884940960E-04  6.328055376E-03  3.710913486E+01  5.942600054E+02  6.444091634E-01 
       112 -2.327584992E-03 -1.649999952E-03  9.884358288E-04  1.789804854E-03  3.402047248E+01  5.942599823E+02  6.939707140E-01 
       113  1.238241434E-02 -1.650000051E-03  9.884166253E-04  7.215604295E-03  3.711680322E+01  5.942600541E+02  0.000000000E+00 
       114 -1.223864467E-02 -1.650000051E-03  9.885870638E-04  2.046427491E-03  3.704329351E+01  5.942600185E+02  6.896248888E-01 
       115 -1.214464338E-02 -1.649999994E-03  9.886984689E-04  1.729044491E-03  3.694366811E+01  5.942600000E+02  6.960628426E-01 
       116 -4.517199587E-03 -1.649999963E-03  9.887236864E-04  1.789804135E-03  3.417582143E+01  5.942599867E+02  6.939912533E-01 
       117 -4.414670316E-03 -1.650000033E-03  9.887104562E-04  1.789804112E-03  3.416609192E+01  5.942600133E+02  6.939898171E-01 
       118 -3.651595001E-03 -1.650000048E-03  9.886098026E-04  1.789803952E-03  3.410232581E+01  5.942600177E+02  6.939808957E-01 
       119 -3.094823677E-03 -1.650000049E-03  9.885372614E-04  1.789804143E-03  3.406267475E+01  5.942600177E+02  6.939758417E-01 
       120 -2.793029229E-03 -1.649999951E-03  9.884973581E-04  1.789804293E-03  3.404426862E+01  5.942599823E+02  6.939735836E-01 
       121 -1.203183536E-02 -1.650000008E-03  9.888320552E-04  1.753379146E-03  3.681911229E+01  5.942599999E+02  6.964047683E-01 
       122 -5.373331867E-03 -1.650000002E-03  9.888373881E-04  1.789805992E-03  3.427326631E+01  5.942600000E+02  6.940070998E-01 
       123 -4.706021831E-03 -1.649999978E-03  9.887486688E-04  1.789804541E-03  3.419664343E+01  5.942599911E+02  6.939946896E-01 
       124 -1.189645587E-02 -1.650000052E-03  9.889921867E-04  1.770187183E-03  3.667259764E+01  5.942600176E+02  6.962215955E-01 
       125 -5.769750150E-03 -1.650000058E-03  9.888914969E-04  1.789807661E-03  3.432667652E+01  5.942600177E+02  6.940170007E-01 
       126 -7.038392819E-03 -1.649999978E-03  9.890637268E-04  1.789817265E-03  3.453330498E+01  5.942599911E+02  6.940629755E-01 
       127 -6.777981764E-03 -1.650000004E-03  9.890279205E-04  1.789815011E-03  3.448770028E+01  5.942600000E+02  6.940524930E-01 
       128 -6.208507374E-03 -1.649999986E-03  9.889500532E-04  1.789809980E-03  3.439058511E+01  5.942600000E+02  6.940295187E-01 
       129 -1.173398426E-02 -1.649999973E-03  9.891839625E-04  1.779251099E-03  3.651269118E+01  5.942599911E+02  6.959628366E-01 
       130 -7.317166953E-03 -1.650000004E-03  9.891033433E-04  1.789821922E-03  3.459218795E+01  5.942600000E+02  6.940802554E-01 
       131 -8.713682192E-03 -1.650000053E-03  9.893002256E-04  1.789862339E-03  3.494337071E+01  5.942600177E+02  6.942096856E-01 
       132 -8.332633425E-03 -1.649999946E-03  9.892454469E-04  1.789848630E-03  3.483835875E+01  5.942599823E+02  6.941676816E-01 
       133 -7.874710432E-03 -1.649999955E-03  9.891805000E-04  1.789832430E-03  3.471667927E+01  5.942599823E+02  6.941180824E-01 
       134 -1.153899587E-02 -1.649999945E-03  9.894136741E-04  1.784402304E-03  3.634278646E+01  5.942599822E+02  6.956842586E-01 
       135 -9.733691370E-03 -1.650000000E-03  9.894490791E-04  1.789875325E-03  3.531605168E+01  5.942600000E+02  6.944558149E-01 
       136 -9.556210586E-03 -1.650000046E-03  9.894235574E-04  1.789908180E-03  3.523524215E+01  5.942600177E+02  6.943819294E-01 
       137 -9.266405885E-03 -1.650000050E-03  9.893819229E-04  1.789892012E-03  3.513276946E+01  5.942600177E+02  6.943209887E-01 
       138 -1.041736222E-02 -1.649999955E-03  9.895527119E-04  1.789757146E-03  3.563372223E+01  5.942599823E+02  6.947417762E-01 
       139 -1.130497527E-02 -1.649999952E-03  9.896886455E-04  1.787290811E-03  3.616236625E+01  5.942599822E+02  6.954034699E-01 
       140 -1.104863784E-02 -1.650000007E-03  9.896471749E-04  1.788008435E-03  3.600712326E+01  5.942599999E+02  6.952095921E-01 
       141  1.110265300E-02 -1.649999997E-03  1.972140752E-03  1.775256817E-03  3.537034789E+01  5.942600000E+02  6.965935392E-01 
       142  1.129766783E-02 -1.649999997E-03  1.972047450E-03  1.774018458E-03  3.542590320E+01  5.942600000E+02  6.968569570E-01 
       143  1.038834619E-02 -1.649999990E-03  1.972439484E-03  1.779628852E-03  3.517017278E+01  5.942600000E+02  6.956651451E-01 
       144  9.996815845E-03 -1.649999998E-03  1.972603110E-03  1.779841747E-03  3.506278532E+01  5.942600000E+02  6.953613014E-01 
       145  9.485811853E-03 -1.649999993E-03  1.972800993E-03  1.780101633E-03  3.492637603E+01  5.942600000E+02  6.949770062E-01 
       146  8.598398070E-03 -1.649999998E-03  1.973137196E-03  1.780032030E-03  3.471064241E+01  5.942600000E+02  6.946180594E-01 
       147  8.805409659E-03 -1.650000022E-03  1.973060752E-03  1.780047314E-03  3.475946361E+01  5.942600088E+02  6.946997942E-01 
       148  1.153328860E-02 -1.649999970E-03  1.973080771E-03  1.768020965E-03  3.548445406E+01  5.942599911E+02  6.973191776E-01 
       149  8.091608969E-03 -1.650000003E-03  1.973322042E-03  1.779998981E-03  3.460524133E+01  5.942600000E+02  6.945028443E-01 
       150  7.572601876E-03 -1.650000025E-03  1.973515861E-03  1.779969970E-03  3.450422703E+01  5.942600088E+02  6.944011915E-01 
       151  7.730469083E-03 -1.650000002E-03  1.973458047E-03  1.779975971E-03  3.453183841E+01  5.942600000E+02  6.944227843E-01 
