nodenumber     x-coordinate     y-coordinate     z-coordinate turb-kinetic-energy         pressure      temperature velocity-magnitude 
         1 -1.238224696E-02 -1.650000007E-03  0.000000000E+00  4.353972411E-03  4.230005465E+01  5.942600171E+02  0.000000000E+00 
         2 -1.231646687E-02 -1.649999949E-03  0.000000000E+00  2.093354475E-03  4.223471233E+01  5.942599823E+02  7.471464672E-01 
         3 -1.223752875E-02 -1.650000008E-03  0.000000000E+00  2.093354538E-03  4.207094258E+01  5.942600000E+02  7.471464895E-01 
         4 -1.214279805E-02 -1.649999951E-03  0.000000000E+00  2.093354475E-03  4.185845675E+01  5.942599823E+02  7.471464672E-01 
         5 -1.202911553E-02 -1.649999951E-03  0.000000000E+00  2.093354475E-03  4.161259819E+01  5.942599823E+02  7.471464672E-01 
         6 -1.189268779E-02 -1.650000001E-03  0.000000000E+00  2.093354538E-03  4.134096159E+01  5.942600000E+02  7.471464895E-01 
         7 -1.172896070E-02 -1.650000028E-03  0.000000000E+00  2.093354569E-03  4.105489788E+01  5.942600089E+02  7.471465006E-01 
         8 -1.153246726E-02 -1.649999968E-03  0.000000000E+00  2.093354507E-03  4.075730595E+01  5.942599911E+02  7.471464784E-01 
         9 -1.129664480E-02 -1.649999999E-03  0.000000000E+00  2.093354538E-03  4.031021246E+01  5.942600000E+02  7.471464895E-01 
        10 -1.104180182E-02 -1.649999952E-03  0.000000000E+00  2.093354475E-03  4.012525289E+01  5.942599823E+02  7.471464672E-01 
        11 -1.040965475E-02 -1.650000037E-03  0.000000000E+00  2.093354600E-03  3.967708708E+01  5.942600177E+02  7.471465118E-01 
        12 -9.727797567E-03 -1.649999974E-03  0.000000000E+00  2.093354507E-03  3.923329198E+01  5.942599911E+02  7.471464784E-01 
        13 -9.549135039E-03 -1.650000016E-03  0.000000000E+00  2.093354569E-03  3.911850882E+01  5.942600089E+02  7.471465006E-01 
        14 -9.257402967E-03 -1.649999996E-03  0.000000000E+00  2.093354538E-03  3.898480054E+01  5.942600000E+02  7.471464895E-01 
        15 -8.707201624E-03 -1.650000004E-03  0.000000000E+00  2.093354538E-03  3.873905988E+01  5.942600000E+02  7.471464895E-01 
        16 -8.327874969E-03 -1.650000002E-03  0.000000000E+00  2.093354538E-03  3.860658791E+01  5.942600000E+02  7.471464895E-01 
        17 -7.868819436E-03 -1.650000009E-03  0.000000000E+00  2.093354538E-03  3.845104038E+01  5.942600000E+02  7.471464895E-01 
        18 -7.309914944E-03 -1.650000005E-03  0.000000000E+00  2.093354538E-03  3.829800039E+01  5.942600000E+02  7.471464895E-01 
        19 -7.033056079E-03 -1.649999952E-03  0.000000000E+00  2.093354475E-03  3.822670616E+01  5.942599823E+02  7.471464672E-01 
        20 -6.774404682E-03 -1.650000049E-03  0.000000000E+00  2.093354600E-03  3.817316682E+01  5.942600177E+02  7.471465118E-01 
        21 -6.203718579E-03 -1.649999993E-03  0.000000000E+00  2.093354538E-03  3.805921193E+01  5.942600000E+02  7.471464895E-01 
        22 -5.764059055E-03 -1.650000057E-03  0.000000000E+00  2.093354600E-03  3.798306788E+01  5.942600177E+02  7.471465118E-01 
        23 -5.369046210E-03 -1.650000008E-03  0.000000000E+00  2.093354538E-03  3.792055906E+01  5.942600000E+02  7.471464895E-01 
        24 -4.703991919E-03 -1.649999998E-03  0.000000000E+00  2.093354538E-03  3.783140634E+01  5.942600000E+02  7.471464895E-01 
        25 -4.513416810E-03 -1.649999963E-03  0.000000000E+00  2.093354491E-03  3.780679534E+01  5.942599867E+02  7.471464728E-01 
        26 -4.409949101E-03 -1.650000002E-03  0.000000000E+00  2.093354538E-03  3.779543330E+01  5.942600000E+02  7.471464895E-01 
        27 -3.648226494E-03 -1.649999989E-03  0.000000000E+00  2.093354538E-03  3.772176940E+01  5.942600000E+02  7.471464895E-01 
        28 -3.090814824E-03 -1.649999990E-03  0.000000000E+00  2.093354538E-03  3.767537114E+01  5.942600000E+02  7.471464895E-01 
        29 -2.790049428E-03 -1.649999975E-03  0.000000000E+00  2.093354507E-03  3.765417829E+01  5.942599911E+02  7.471464784E-01 
        30 -2.326109559E-03 -1.650000046E-03  0.000000000E+00  2.093354600E-03  3.762730225E+01  5.942600177E+02  7.471465118E-01 
        31 -1.966101120E-03 -1.650000005E-03  0.000000000E+00  2.093354538E-03  3.760868136E+01  5.942600000E+02  7.471464895E-01 
        32 -1.649288649E-03 -1.650000004E-03  0.000000000E+00  2.093354538E-03  3.759669668E+01  5.942600000E+02  7.471464895E-01 
        33 -1.153324779E-03 -1.650000049E-03  0.000000000E+00  2.093354600E-03  3.758233765E+01  5.942600177E+02  7.471465118E-01 
        34 -7.314993435E-04 -1.649999992E-03  0.000000000E+00  2.093354538E-03  3.757422487E+01  5.942600000E+02  7.471464895E-01 
        35 -3.521276869E-04 -1.650000043E-03  0.000000000E+00  2.093354600E-03  3.756961248E+01  5.942600177E+02  7.471465118E-01 
        36  2.062356178E-04 -1.650000004E-03  0.000000000E+00  2.093354538E-03  3.756911248E+01  5.942600000E+02  7.471464895E-01 
        37  4.531226353E-04 -1.649999970E-03  0.000000000E+00  2.093354507E-03  3.757018051E+01  5.942599911E+02  7.471464784E-01 
        38  5.816147412E-04 -1.650000031E-03  0.000000000E+00  2.093354569E-03  3.757241892E+01  5.942600089E+02  7.471465006E-01 
        39  1.287381078E-03 -1.649999940E-03  0.000000000E+00  2.093354475E-03  3.759050921E+01  5.942599823E+02  7.471464672E-01 
        40  1.817906072E-03 -1.650000045E-03  0.000000000E+00  2.093354600E-03  3.760957923E+01  5.942600177E+02  7.471465118E-01 
        41  2.171618469E-03 -1.649999958E-03  0.000000000E+00  2.093354475E-03  3.762623756E+01  5.942599823E+02  7.471464672E-01 
        42  2.917015337E-03 -1.650000026E-03  0.000000000E+00  2.093354569E-03  3.767084324E+01  5.942600089E+02  7.471465006E-01 
        43  3.060138752E-03 -1.649999982E-03  0.000000000E+00  2.093354514E-03  3.768000230E+01  5.942599934E+02  7.471464811E-01 
        44  3.122627803E-03 -1.650000012E-03  0.000000000E+00  2.093354553E-03  3.768482104E+01  5.942600044E+02  7.471464951E-01 
        45  3.948750735E-03 -1.649999946E-03  0.000000000E+00  2.093354475E-03  3.775832685E+01  5.942599823E+02  7.471464672E-01 
        46  4.233552192E-03 -1.650000005E-03  0.000000000E+00  2.093354538E-03  3.778564904E+01  5.942600000E+02  7.471464895E-01 
        47  4.833507872E-03 -1.649999945E-03  0.000000000E+00  2.093354475E-03  3.785611138E+01  5.942599823E+02  7.471464672E-01 
        48  5.160210487E-03 -1.649999946E-03  0.000000000E+00  2.093354475E-03  3.789955733E+01  5.942599823E+02  7.471464672E-01 
        49  5.783248106E-03 -1.650000052E-03  0.000000000E+00  2.093354600E-03  3.799783106E+01  5.942600177E+02  7.471465118E-01 
        50  6.035984549E-03 -1.649999976E-03  0.000000000E+00  2.093354507E-03  3.803999809E+01  5.942599911E+02  7.471464784E-01 
        51  6.237400109E-03 -1.650000022E-03  0.000000000E+00  2.093354569E-03  3.807851504E+01  5.942600089E+02  7.471465006E-01 
        52  6.881112835E-03 -1.650000056E-03  0.000000000E+00  2.093354600E-03  3.820739357E+01  5.942600177E+02  7.471465118E-01 
        53  7.573470319E-03 -1.649999997E-03  0.000000000E+00  2.093354538E-03  3.837850338E+01  5.942600000E+02  7.471464895E-01 
        54  7.730792309E-03 -1.650000003E-03  0.000000000E+00  2.093354538E-03  3.841873707E+01  5.942600000E+02  7.471464895E-01 
        55  8.090815089E-03 -1.650000001E-03  0.000000000E+00  2.093354538E-03  3.853606097E+01  5.942600000E+02  7.471464895E-01 
        56  8.598449542E-03 -1.650000003E-03  0.000000000E+00  2.093354538E-03  3.870551680E+01  5.942600000E+02  7.471464895E-01 
        57  8.805739513E-03 -1.650000003E-03  0.000000000E+00  2.093354538E-03  3.879620259E+01  5.942600000E+02  7.471464895E-01 
        58  9.485623847E-03 -1.649999997E-03  0.000000000E+00  2.093354538E-03  3.910510317E+01  5.942600000E+02  7.471464895E-01 
        59  9.996717122E-03 -1.650000053E-03  0.000000000E+00  2.093354600E-03  3.942816083E+01  5.942600177E+02  7.471465118E-01 
        60  1.038796781E-02 -1.650000000E-03  0.000000000E+00  2.093354538E-03  3.968646293E+01  5.942600000E+02  7.471464895E-01 
        61  1.110225324E-02 -1.650000050E-03  0.000000000E+00  2.093354600E-03  4.019878704E+01  5.942600177E+02  7.471465118E-01 
        62  1.129715473E-02 -1.650000051E-03  0.000000000E+00  2.093354600E-03  4.034153288E+01  5.942600177E+02  7.471465118E-01 
        63  1.153289457E-02 -1.649999949E-03  0.000000000E+00  2.093354475E-03  4.079874170E+01  5.942599823E+02  7.471464672E-01 
        64  1.172932302E-02 -1.649999996E-03  0.000000000E+00  2.093354538E-03  4.110565585E+01  5.942600000E+02  7.471464895E-01 
        65  1.189299876E-02 -1.650000052E-03  0.000000000E+00  2.093354600E-03  4.140216765E+01  5.942600177E+02  7.471465118E-01 
        66  1.202938442E-02 -1.649999949E-03  0.000000000E+00  2.093354475E-03  4.168535094E+01  5.942599823E+02  7.471464672E-01 
        67  1.214303390E-02 -1.650000044E-03  0.000000000E+00  2.093354600E-03  4.194259491E+01  5.942600177E+02  7.471465118E-01 
        68  1.223773642E-02 -1.650000012E-03  0.000000000E+00  2.093354538E-03  4.216552061E+01  5.942600000E+02  7.471464895E-01 
        69  1.231665286E-02 -1.650000046E-03  0.000000000E+00  2.093354600E-03  4.233731372E+01  5.942600177E+02  7.471465118E-01 
        70  1.238241385E-02 -1.649999998E-03  0.000000000E+00  4.326246712E-03  4.240545134E+01  5.942600171E+02  0.000000000E+00 
        71  1.110245300E-02 -1.649999996E-03  9.860657205E-04  2.073237014E-03  3.988884378E+01  5.942599999E+02  7.486398090E-01 
        72  1.129741118E-02 -1.649999994E-03  9.860237298E-04  2.072677082E-03  4.002296692E+01  5.942599999E+02  7.488054814E-01 
        73  1.038815708E-02 -1.649999987E-03  9.861987235E-04  2.075211536E-03  3.941208976E+01  5.942600000E+02  7.480581461E-01 
        74  8.805574705E-03 -1.650000021E-03  9.864727040E-04  2.075257801E-03  3.868355171E+01  5.942600088E+02  7.475172292E-01 
        75  9.485717905E-03 -1.650000014E-03  9.863583903E-04  2.075309298E-03  3.894941679E+01  5.942600000E+02  7.476607415E-01 
        76  9.996766092E-03 -1.649999943E-03  9.862710097E-04  2.075255722E-03  3.920827800E+01  5.942599823E+02  7.478824632E-01 
        77  7.730630904E-03 -1.650000039E-03  9.866502961E-04  2.075206175E-03  3.834731029E+01  5.942600133E+02  7.473800028E-01 
        78  8.091212126E-03 -1.649999999E-03  9.865892570E-04  2.075221206E-03  3.845314506E+01  5.942600000E+02  7.474188092E-01 
        79  8.598423723E-03 -1.649999983E-03  9.865066297E-04  2.075242891E-03  3.860553627E+01  5.942599911E+02  7.474747759E-01 
        80  1.153309208E-02 -1.650000032E-03  9.865404178E-04  2.069585416E-03  4.022525612E+01  5.942600088E+02  7.491244379E-01 
        81  7.573036225E-03 -1.650000030E-03  9.866765862E-04  2.075202422E-03  3.830985920E+01  5.942600088E+02  7.473699325E-01 
        82  5.783215100E-03 -1.650000004E-03  9.869826635E-04  2.075171178E-03  3.795353128E+01  5.942600000E+02  7.472864680E-01 
        83  6.035506259E-03 -1.649999949E-03  9.869375075E-04  2.075173856E-03  3.799184601E+01  5.942599823E+02  7.472929242E-01 
        84  6.236595952E-03 -1.650000002E-03  9.869024133E-04  2.075176925E-03  3.802866518E+01  5.942600000E+02  7.473008051E-01 
        85  6.880806203E-03 -1.649999944E-03  9.867931445E-04  2.075186370E-03  3.815059155E+01  5.942599823E+02  7.473262722E-01 
        86  1.172947215E-02 -1.650000029E-03  9.869723181E-04  2.064049908E-03  4.041658380E+01  5.942600088E+02  7.494430552E-01 
        87  4.832561986E-03 -1.649999941E-03  9.871570102E-04  2.075162172E-03  3.782045743E+01  5.942599823E+02  7.472651355E-01 
        88  5.159606270E-03 -1.650000004E-03  9.870976822E-04  2.075164845E-03  3.786265414E+01  5.942600000E+02  7.472713910E-01 
        89  3.947734035E-03 -1.649999955E-03  9.873277149E-04  2.075155672E-03  3.772405883E+01  5.942599823E+02  7.472517333E-01 
        90  4.232942892E-03 -1.649999946E-03  9.872707921E-04  2.075157608E-03  3.775124315E+01  5.942599823E+02  7.472551275E-01 
        91  1.189310817E-02 -1.649999954E-03  9.873330752E-04  2.054361726E-03  4.059725984E+01  5.942599822E+02  7.497405487E-01 
        92  2.914795121E-03 -1.649999999E-03  9.875323253E-04  2.075149370E-03  3.764082158E+01  5.942600000E+02  7.472417426E-01 
        93  3.058937451E-03 -1.650000039E-03  9.875036176E-04  2.075150204E-03  3.764973038E+01  5.942600133E+02  7.472426993E-01 
        94  3.121859929E-03 -1.649999985E-03  9.874906111E-04  2.075150517E-03  3.765429667E+01  5.942599956E+02  7.472431899E-01 
        95  1.285714191E-03 -1.649999950E-03  9.878538017E-04  2.075141002E-03  3.756300880E+01  5.942599823E+02  7.472332841E-01 
        96  1.816924899E-03 -1.650000049E-03  9.877480907E-04  2.075143657E-03  3.758163678E+01  5.942600177E+02  7.472354797E-01 
        97  2.170191834E-03 -1.650000044E-03  9.876810309E-04  2.075145382E-03  3.759784745E+01  5.942600177E+02  7.472372134E-01 
        98  1.202946298E-02 -1.649999953E-03  9.876343321E-04  2.036586218E-03  4.076334266E+01  5.942599822E+02  7.499577121E-01 
        99  1.214308635E-02 -1.649999988E-03  9.878858045E-04  2.008991767E-03  4.090462521E+01  5.942600000E+02  7.496270081E-01 
       100 -3.542577826E-04 -1.650000007E-03  9.881497301E-04  2.075134559E-03  3.754256136E+01  5.942600000E+02  7.472310105E-01 
       101  2.031021205E-04 -1.649999952E-03  9.880507533E-04  2.075136513E-03  3.754239481E+01  5.942599823E+02  7.472310696E-01 
       102  4.512136878E-04 -1.649999952E-03  9.880065915E-04  2.075137445E-03  3.754345681E+01  5.942599823E+02  7.472310057E-01 
       103  5.803136392E-04 -1.649999997E-03  9.879823968E-04  2.075138066E-03  3.754571204E+01  5.942600000E+02  7.472315564E-01 
       104  1.223776813E-02 -1.650000009E-03  9.880956075E-04  2.334063241E-03  4.101697274E+01  5.942600009E+02  7.427012744E-01 
       105 -1.968786396E-03 -1.649999951E-03  9.883890366E-04  2.075130286E-03  3.758118539E+01  5.942599823E+02  7.472364590E-01 
       106 -1.652977683E-03 -1.649999996E-03  9.883474365E-04  2.075130980E-03  3.756941643E+01  5.942600000E+02  7.472349832E-01 
       107 -1.155706233E-03 -1.649999999E-03  9.882811823E-04  2.075132097E-03  3.755494514E+01  5.942600000E+02  7.472328614E-01 
       108 -7.328599352E-04 -1.649999953E-03  9.882105507E-04  2.075133326E-03  3.754711174E+01  5.942599823E+02  7.472316693E-01 
       109  1.231666688E-02 -1.649999993E-03  9.882706246E-04  7.097206717E-03  4.108922124E+01  5.942600064E+02  6.932394858E-01 
       110 -1.238224737E-02 -1.650000051E-03  9.884166253E-04  8.253289710E-03  4.109861847E+01  5.942600598E+02  0.000000000E+00 
       111 -1.231697450E-02 -1.649999999E-03  9.884940960E-04  7.176688602E-03  4.108546947E+01  5.942600061E+02  6.950871736E-01 
       112 -2.327584992E-03 -1.649999952E-03  9.884358288E-04  2.075129695E-03  3.759910524E+01  5.942599823E+02  7.472385947E-01 
       113  1.238241434E-02 -1.650000051E-03  9.884166253E-04  8.179712517E-03  4.110044459E+01  5.942600598E+02  0.000000000E+00 
       114 -1.223864467E-02 -1.650000051E-03  9.885870638E-04  2.346173105E-03  4.101072884E+01  5.942600186E+02  7.427390702E-01 
       115 -1.214464338E-02 -1.649999994E-03  9.886984689E-04  2.004928535E-03  4.089737930E+01  5.942600000E+02  7.494429040E-01 
       116 -4.517199587E-03 -1.649999963E-03  9.887236864E-04  2.075128497E-03  3.777046768E+01  5.942599867E+02  7.472605727E-01 
       117 -4.414670316E-03 -1.650000033E-03  9.887104562E-04  2.075128495E-03  3.775968958E+01  5.942600133E+02  7.472590349E-01 
       118 -3.651595001E-03 -1.650000048E-03  9.886098026E-04  2.075128461E-03  3.768920359E+01  5.942600177E+02  7.472494827E-01 
       119 -3.094823677E-03 -1.650000049E-03  9.885372614E-04  2.075128776E-03  3.764546595E+01  5.942600177E+02  7.472440779E-01 
       120 -2.793029229E-03 -1.649999951E-03  9.884973581E-04  2.075128991E-03  3.762521731E+01  5.942599823E+02  7.472416644E-01 
       121 -1.203183536E-02 -1.650000008E-03  9.888320552E-04  2.033579513E-03  4.075613919E+01  5.942599999E+02  7.497877619E-01 
       122 -5.373331867E-03 -1.650000002E-03  9.888373881E-04  2.075130401E-03  3.787864036E+01  5.942600000E+02  7.472775671E-01 
       123 -4.706021831E-03 -1.649999978E-03  9.887486688E-04  2.075128914E-03  3.779357959E+01  5.942599911E+02  7.472642589E-01 
       124 -1.189645587E-02 -1.650000052E-03  9.889921867E-04  2.052663317E-03  4.059014368E+01  5.942600176E+02  7.495983163E-01 
       125 -5.769750150E-03 -1.650000058E-03  9.888914969E-04  2.075132193E-03  3.793808934E+01  5.942600177E+02  7.472881999E-01 
       126 -7.038392819E-03 -1.649999978E-03  9.890637268E-04  2.075142722E-03  3.816882379E+01  5.942599911E+02  7.473374543E-01 
       127 -6.777981764E-03 -1.650000004E-03  9.890279205E-04  2.075140241E-03  3.811785760E+01  5.942600000E+02  7.473262242E-01 
       128 -6.208507374E-03 -1.649999986E-03  9.889500532E-04  2.075134696E-03  3.800930606E+01  5.942600000E+02  7.473016226E-01 
       129 -1.173398426E-02 -1.649999973E-03  9.891839625E-04  2.062999900E-03  4.040926020E+01  5.942599911E+02  7.493283805E-01 
       130 -7.317166953E-03 -1.650000004E-03  9.891033433E-04  2.075147913E-03  3.823488317E+01  5.942600000E+02  7.473558923E-01 
       131 -8.713682192E-03 -1.650000053E-03  9.893002256E-04  2.075192934E-03  3.863005230E+01  5.942600177E+02  7.474932435E-01 
       132 -8.332633425E-03 -1.649999946E-03  9.892454469E-04  2.075177657E-03  3.851172784E+01  5.942599823E+02  7.474487352E-01 
       133 -7.874710432E-03 -1.649999955E-03  9.891805000E-04  2.075159621E-03  3.837462069E+01  5.942599823E+02  7.473961977E-01 
       134 -1.153899587E-02 -1.649999945E-03  9.894136741E-04  2.068895279E-03  4.021675125E+01  5.942599822E+02  7.490369716E-01 
       135 -9.733691370E-03 -1.650000000E-03  9.894490791E-04  2.075202800E-03  3.905189182E+01  5.942600000E+02  7.477517735E-01 
       136 -9.556210586E-03 -1.650000046E-03  9.894235574E-04  2.075242534E-03  3.896023201E+01  5.942600177E+02  7.476744150E-01 
       137 -9.266405885E-03 -1.650000050E-03  9.893819229E-04  2.075225054E-03  3.884431258E+01  5.942600177E+02  7.476103241E-01 
       138 -1.041736222E-02 -1.649999955E-03  9.895527119E-04  2.075059268E-03  3.941225284E+01  5.942599823E+02  7.480511640E-01 
       139 -1.130497527E-02 -1.649999952E-03  9.896886455E-04  2.072209935E-03  4.001222550E+01  5.942599822E+02  7.487431641E-01 
       140 -1.104863784E-02 -1.650000007E-03  9.896471749E-04  2.073039077E-03  3.983602986E+01  5.942599999E+02  7.485404276E-01 
       141  1.110265300E-02 -1.649999997E-03  1.972140752E-03  2.058273255E-03  3.912175322E+01  5.942600000E+02  7.499991463E-01 
       142  1.129766783E-02 -1.649999997E-03  1.972047450E-03  2.056846972E-03  3.918456359E+01  5.942600000E+02  7.502759397E-01 
       143  1.038834619E-02 -1.649999990E-03  1.972439484E-03  2.063309227E-03  3.889543167E+01  5.942600000E+02  7.490236029E-01 
       144  9.996815845E-03 -1.649999998E-03  1.972603110E-03  2.063559304E-03  3.877435727E+01  5.942600000E+02  7.487038328E-01 
       145  9.485811853E-03 -1.649999993E-03  1.972800993E-03  2.063864689E-03  3.862054933E+01  5.942600000E+02  7.482993997E-01 
       146  8.598398070E-03 -1.649999998E-03  1.973137196E-03  2.063789661E-03  3.837788111E+01  5.942600000E+02  7.479207527E-01 
       147  8.805409659E-03 -1.650000022E-03  1.973060752E-03  2.063806110E-03  3.843280382E+01  5.942600088E+02  7.480069699E-01 
       148  1.153328860E-02 -1.649999970E-03  1.973080771E-03  2.049964234E-03  3.925092805E+01  5.942599911E+02  7.507611181E-01 
       149  8.091608969E-03 -1.650000003E-03  1.973322042E-03  2.063752886E-03  3.825952181E+01  5.942600000E+02  7.477989249E-01 
       150  7.572601876E-03 -1.650000025E-03  1.973515861E-03  2.063720574E-03  3.814613349E+01  5.942600088E+02  7.476913920E-01 
       151  7.730469083E-03 -1.650000002E-03  1.973458047E-03  2.063727273E-03  3.817709887E+01  5.942600000E+02  7.477142638E-01 
