nodenumber     x-coordinate     y-coordinate     z-coordinate turb-kinetic-energy         pressure      temperature velocity-magnitude 
         1 -1.238224696E-02 -1.650000007E-03  0.000000000E+00  4.405250332E-03  4.269070782E+01  5.942600173E+02  0.000000000E+00 
         2 -1.231646687E-02 -1.649999949E-03  0.000000000E+00  2.121210793E-03  4.262464317E+01  5.942599823E+02  7.521011865E-01 
         3 -1.223752875E-02 -1.650000008E-03  0.000000000E+00  2.121210857E-03  4.245903976E+01  5.942600000E+02  7.521012089E-01 
         4 -1.214279805E-02 -1.649999951E-03  0.000000000E+00  2.121210793E-03  4.224415695E+01  5.942599823E+02  7.521011865E-01 
         5 -1.202911553E-02 -1.649999951E-03  0.000000000E+00  2.121210793E-03  4.199555062E+01  5.942599823E+02  7.521011865E-01 
         6 -1.189268779E-02 -1.650000001E-03  0.000000000E+00  2.121210857E-03  4.172090789E+01  5.942600000E+02  7.521012089E-01 
         7 -1.172896070E-02 -1.650000028E-03  0.000000000E+00  2.121210888E-03  4.143168421E+01  5.942600089E+02  7.521012201E-01 
         8 -1.153246726E-02 -1.649999968E-03  0.000000000E+00  2.121210825E-03  4.113079884E+01  5.942599911E+02  7.521011977E-01 
         9 -1.129664480E-02 -1.649999999E-03  0.000000000E+00  2.121210857E-03  4.067874134E+01  5.942600000E+02  7.521012089E-01 
        10 -1.104180182E-02 -1.649999952E-03  0.000000000E+00  2.121210793E-03  4.049172839E+01  5.942599823E+02  7.521011865E-01 
        11 -1.040965475E-02 -1.650000037E-03  0.000000000E+00  2.121210920E-03  4.003859325E+01  5.942600177E+02  7.521012313E-01 
        12 -9.727797567E-03 -1.649999974E-03  0.000000000E+00  2.121210825E-03  3.958988379E+01  5.942599911E+02  7.521011977E-01 
        13 -9.549135039E-03 -1.650000016E-03  0.000000000E+00  2.121210888E-03  3.947383035E+01  5.942600089E+02  7.521012201E-01 
        14 -9.257402967E-03 -1.649999996E-03  0.000000000E+00  2.121210857E-03  3.933865051E+01  5.942600000E+02  7.521012089E-01 
        15 -8.707201624E-03 -1.650000004E-03  0.000000000E+00  2.121210857E-03  3.909021256E+01  5.942600000E+02  7.521012089E-01 
        16 -8.327874969E-03 -1.650000002E-03  0.000000000E+00  2.121210857E-03  3.895630040E+01  5.942600000E+02  7.521012089E-01 
        17 -7.868819436E-03 -1.650000009E-03  0.000000000E+00  2.121210857E-03  3.879906373E+01  5.942600000E+02  7.521012089E-01 
        18 -7.309914944E-03 -1.650000005E-03  0.000000000E+00  2.121210857E-03  3.864438130E+01  5.942600000E+02  7.521012089E-01 
        19 -7.033056079E-03 -1.649999952E-03  0.000000000E+00  2.121210793E-03  3.857232692E+01  5.942599823E+02  7.521011865E-01 
        20 -6.774404682E-03 -1.650000049E-03  0.000000000E+00  2.121210920E-03  3.851822567E+01  5.942600177E+02  7.521012313E-01 
        21 -6.203718579E-03 -1.649999993E-03  0.000000000E+00  2.121210857E-03  3.840307493E+01  5.942600000E+02  7.521012089E-01 
        22 -5.764059055E-03 -1.650000057E-03  0.000000000E+00  2.121210920E-03  3.832614395E+01  5.942600177E+02  7.521012313E-01 
        23 -5.369046210E-03 -1.650000008E-03  0.000000000E+00  2.121210857E-03  3.826299701E+01  5.942600000E+02  7.521012089E-01 
        24 -4.703991919E-03 -1.649999998E-03  0.000000000E+00  2.121210857E-03  3.817294973E+01  5.942600000E+02  7.521012089E-01 
        25 -4.513416810E-03 -1.649999963E-03  0.000000000E+00  2.121210809E-03  3.814809241E+01  5.942599867E+02  7.521011921E-01 
        26 -4.409949101E-03 -1.650000002E-03  0.000000000E+00  2.121210857E-03  3.813661837E+01  5.942600000E+02  7.521012089E-01 
        27 -3.648226494E-03 -1.649999989E-03  0.000000000E+00  2.121210857E-03  3.806224572E+01  5.942600000E+02  7.521012089E-01 
        28 -3.090814824E-03 -1.649999990E-03  0.000000000E+00  2.121210857E-03  3.801540999E+01  5.942600000E+02  7.521012089E-01 
        29 -2.790049428E-03 -1.649999975E-03  0.000000000E+00  2.121210825E-03  3.799402401E+01  5.942599911E+02  7.521011977E-01 
        30 -2.326109559E-03 -1.650000046E-03  0.000000000E+00  2.121210920E-03  3.796691038E+01  5.942600177E+02  7.521012313E-01 
        31 -1.966101120E-03 -1.650000005E-03  0.000000000E+00  2.121210857E-03  3.794812902E+01  5.942600000E+02  7.521012089E-01 
        32 -1.649288649E-03 -1.650000004E-03  0.000000000E+00  2.121210857E-03  3.793604899E+01  5.942600000E+02  7.521012089E-01 
        33 -1.153324779E-03 -1.650000049E-03  0.000000000E+00  2.121210920E-03  3.792158829E+01  5.942600177E+02  7.521012313E-01 
        34 -7.314993435E-04 -1.649999992E-03  0.000000000E+00  2.121210857E-03  3.791343132E+01  5.942600000E+02  7.521012089E-01 
        35 -3.521276869E-04 -1.650000043E-03  0.000000000E+00  2.121210920E-03  3.790880734E+01  5.942600177E+02  7.521012313E-01 
        36  2.062356178E-04 -1.650000004E-03  0.000000000E+00  2.121210857E-03  3.790835423E+01  5.942600000E+02  7.521012089E-01 
        37  4.531226353E-04 -1.649999970E-03  0.000000000E+00  2.121210825E-03  3.790945656E+01  5.942599911E+02  7.521011977E-01 
        38  5.816147412E-04 -1.650000031E-03  0.000000000E+00  2.121210888E-03  3.791173080E+01  5.942600089E+02  7.521012201E-01 
        39  1.287381078E-03 -1.649999940E-03  0.000000000E+00  2.121210793E-03  3.793007988E+01  5.942599823E+02  7.521011865E-01 
        40  1.817906072E-03 -1.650000045E-03  0.000000000E+00  2.121210920E-03  3.794940277E+01  5.942600177E+02  7.521012313E-01 
        41  2.171618469E-03 -1.649999958E-03  0.000000000E+00  2.121210793E-03  3.796627174E+01  5.942599823E+02  7.521011865E-01 
        42  2.917015337E-03 -1.650000026E-03  0.000000000E+00  2.121210888E-03  3.801142273E+01  5.942600089E+02  7.521012201E-01 
        43  3.060138752E-03 -1.649999982E-03  0.000000000E+00  2.121210833E-03  3.802069276E+01  5.942599934E+02  7.521012005E-01 
        44  3.122627803E-03 -1.650000012E-03  0.000000000E+00  2.121210872E-03  3.802556878E+01  5.942600044E+02  7.521012145E-01 
        45  3.948750735E-03 -1.649999946E-03  0.000000000E+00  2.121210793E-03  3.809993822E+01  5.942599823E+02  7.521011865E-01 
        46  4.233552192E-03 -1.650000005E-03  0.000000000E+00  2.121210857E-03  3.812757875E+01  5.942600000E+02  7.521012089E-01 
        47  4.833507872E-03 -1.649999945E-03  0.000000000E+00  2.121210793E-03  3.819885464E+01  5.942599823E+02  7.521011865E-01 
        48  5.160210487E-03 -1.649999946E-03  0.000000000E+00  2.121210793E-03  3.824279900E+01  5.942599823E+02  7.521011865E-01 
        49  5.783248106E-03 -1.650000052E-03  0.000000000E+00  2.121210920E-03  3.834219854E+01  5.942600177E+02  7.521012313E-01 
        50  6.035984549E-03 -1.649999976E-03  0.000000000E+00  2.121210825E-03  3.838484793E+01  5.942599911E+02  7.521011977E-01 
        51  6.237400109E-03 -1.650000022E-03  0.000000000E+00  2.121210888E-03  3.842380434E+01  5.942600089E+02  7.521012201E-01 
        52  6.881112835E-03 -1.650000056E-03  0.000000000E+00  2.121210920E-03  3.855415057E+01  5.942600177E+02  7.521012313E-01 
        53  7.573470319E-03 -1.649999997E-03  0.000000000E+00  2.121210857E-03  3.872720678E+01  5.942600000E+02  7.521012089E-01 
        54  7.730792309E-03 -1.650000003E-03  0.000000000E+00  2.121210857E-03  3.876789752E+01  5.942600000E+02  7.521012089E-01 
        55  8.090815089E-03 -1.650000001E-03  0.000000000E+00  2.121210857E-03  3.888655276E+01  5.942600000E+02  7.521012089E-01 
        56  8.598449542E-03 -1.650000003E-03  0.000000000E+00  2.121210857E-03  3.905793066E+01  5.942600000E+02  7.521012089E-01 
        57  8.805739513E-03 -1.650000003E-03  0.000000000E+00  2.121210857E-03  3.914964294E+01  5.942600000E+02  7.521012089E-01 
        58  9.485623847E-03 -1.649999997E-03  0.000000000E+00  2.121210857E-03  3.946203764E+01  5.942600000E+02  7.521012089E-01 
        59  9.996717122E-03 -1.650000053E-03  0.000000000E+00  2.121210920E-03  3.978873695E+01  5.942600177E+02  7.521012313E-01 
        60  1.038796781E-02 -1.650000000E-03  0.000000000E+00  2.121210857E-03  4.004994957E+01  5.942600000E+02  7.521012089E-01 
        61  1.110225324E-02 -1.650000050E-03  0.000000000E+00  2.121210920E-03  4.056802682E+01  5.942600177E+02  7.521012313E-01 
        62  1.129715473E-02 -1.650000051E-03  0.000000000E+00  2.121210920E-03  4.071237513E+01  5.942600177E+02  7.521012313E-01 
        63  1.153289457E-02 -1.649999949E-03  0.000000000E+00  2.121210793E-03  4.117470010E+01  5.942599823E+02  7.521011865E-01 
        64  1.172932302E-02 -1.649999996E-03  0.000000000E+00  2.121210857E-03  4.148503477E+01  5.942600000E+02  7.521012089E-01 
        65  1.189299876E-02 -1.650000052E-03  0.000000000E+00  2.121210920E-03  4.178484334E+01  5.942600177E+02  7.521012313E-01 
        66  1.202938442E-02 -1.649999949E-03  0.000000000E+00  2.121210793E-03  4.207118126E+01  5.942599823E+02  7.521011865E-01 
        67  1.214303390E-02 -1.650000044E-03  0.000000000E+00  2.121210920E-03  4.233131992E+01  5.942600177E+02  7.521012313E-01 
        68  1.223773642E-02 -1.650000012E-03  0.000000000E+00  2.121210857E-03  4.255678232E+01  5.942600000E+02  7.521012089E-01 
        69  1.231665286E-02 -1.650000046E-03  0.000000000E+00  2.121210920E-03  4.273051817E+01  5.942600177E+02  7.521012313E-01 
        70  1.238241385E-02 -1.649999998E-03  0.000000000E+00  4.377258861E-03  4.279941530E+01  5.942600173E+02  0.000000000E+00 
        71  1.110245300E-02 -1.649999996E-03  9.860657205E-04  2.100824428E-03  4.025464641E+01  5.942599999E+02  7.536011635E-01 
        72  1.129741118E-02 -1.649999994E-03  9.860237298E-04  2.100257209E-03  4.039028074E+01  5.942599999E+02  7.537675660E-01 
        73  1.038815708E-02 -1.649999987E-03  9.861987235E-04  2.102824679E-03  3.977251923E+01  5.942600000E+02  7.530169382E-01 
        74  8.805574705E-03 -1.650000021E-03  9.864727040E-04  2.102872587E-03  3.903573043E+01  5.942600088E+02  7.524736276E-01 
        75  9.485717905E-03 -1.650000014E-03  9.863583903E-04  2.102924491E-03  3.930461084E+01  5.942600000E+02  7.526177783E-01 
        76  9.996766092E-03 -1.649999943E-03  9.862710097E-04  2.102869787E-03  3.956640184E+01  5.942599823E+02  7.528404791E-01 
        77  7.730630904E-03 -1.650000039E-03  9.866502961E-04  2.102820499E-03  3.869567003E+01  5.942600133E+02  7.523357838E-01 
        78  8.091212126E-03 -1.649999999E-03  9.865892570E-04  2.102835671E-03  3.880270742E+01  5.942600000E+02  7.523747658E-01 
        79  8.598423723E-03 -1.649999983E-03  9.865066297E-04  2.102857559E-03  3.895682943E+01  5.942599911E+02  7.524309856E-01 
        80  1.153309208E-02 -1.650000032E-03  9.865404178E-04  2.097127154E-03  4.059483808E+01  5.942600088E+02  7.540879205E-01 
        81  7.573036225E-03 -1.650000030E-03  9.866765862E-04  2.102816710E-03  3.865779342E+01  5.942600088E+02  7.523256667E-01 
        82  5.783215100E-03 -1.650000004E-03  9.869826635E-04  2.102785149E-03  3.829740729E+01  5.942600000E+02  7.522418076E-01 
        83  6.035506259E-03 -1.649999949E-03  9.869375075E-04  2.102787856E-03  3.833616002E+01  5.942599823E+02  7.522482958E-01 
        84  6.236595952E-03 -1.650000002E-03  9.869024133E-04  2.102790957E-03  3.837339923E+01  5.942600000E+02  7.522562144E-01 
        85  6.880806203E-03 -1.649999944E-03  9.867931445E-04  2.102800499E-03  3.849671357E+01  5.942599823E+02  7.522818036E-01 
        86  1.172947215E-02 -1.650000029E-03  9.869723181E-04  2.091524121E-03  4.078829872E+01  5.942600088E+02  7.544079222E-01 
        87  4.832561986E-03 -1.649999941E-03  9.871570102E-04  2.102776045E-03  3.816280975E+01  5.942599823E+02  7.522203682E-01 
        88  5.159606270E-03 -1.650000004E-03  9.870976822E-04  2.102778748E-03  3.820548987E+01  5.942600000E+02  7.522266557E-01 
        89  3.947734035E-03 -1.649999955E-03  9.873277149E-04  2.102769472E-03  3.806529655E+01  5.942599823E+02  7.522068963E-01 
        90  4.232942892E-03 -1.649999946E-03  9.872707921E-04  2.102771430E-03  3.809279720E+01  5.942599823E+02  7.522103086E-01 
        91  1.189310817E-02 -1.649999954E-03  9.873330752E-04  2.081720720E-03  4.097098594E+01  5.942599822E+02  7.547066953E-01 
        92  2.914795121E-03 -1.649999999E-03  9.875323253E-04  2.102763095E-03  3.798107819E+01  5.942600000E+02  7.521968517E-01 
        93  3.058937451E-03 -1.650000039E-03  9.875036176E-04  2.102763939E-03  3.799009477E+01  5.942600133E+02  7.521978137E-01 
        94  3.121859929E-03 -1.649999985E-03  9.874906111E-04  2.102764256E-03  3.799471532E+01  5.942599956E+02  7.521983070E-01 
        95  1.285714191E-03 -1.649999950E-03  9.878538017E-04  2.102754623E-03  3.790228941E+01  5.942599823E+02  7.521883465E-01 
        96  1.816924899E-03 -1.650000049E-03  9.877480907E-04  2.102757312E-03  3.792116384E+01  5.942600177E+02  7.521905539E-01 
        97  2.170191834E-03 -1.650000044E-03  9.876810309E-04  2.102759058E-03  3.793757936E+01  5.942600177E+02  7.521922976E-01 
        98  1.202946298E-02 -1.649999953E-03  9.876343321E-04  2.063740946E-03  4.113892636E+01  5.942599822E+02  7.549248346E-01 
        99  1.214308635E-02 -1.649999988E-03  9.878858045E-04  2.035762763E-03  4.128180684E+01  5.942600000E+02  7.545937136E-01 
       100 -3.542577826E-04 -1.650000007E-03  9.881497301E-04  2.102748093E-03  3.788146943E+01  5.942600000E+02  7.521860591E-01 
       101  2.031021205E-04 -1.649999952E-03  9.880507533E-04  2.102750074E-03  3.788135467E+01  5.942599823E+02  7.521861191E-01 
       102  4.512136878E-04 -1.649999952E-03  9.880065915E-04  2.102751020E-03  3.788245183E+01  5.942599823E+02  7.521860578E-01 
       103  5.803136392E-04 -1.649999997E-03  9.879823968E-04  2.102751648E-03  3.788474305E+01  5.942600000E+02  7.521866095E-01 
       104  1.223776813E-02 -1.650000009E-03  9.880956075E-04  2.362919074E-03  4.139544159E+01  5.942600009E+02  7.476422841E-01 
       105 -1.968786396E-03 -1.649999951E-03  9.883890366E-04  2.102743756E-03  3.792033836E+01  5.942599823E+02  7.521915371E-01 
       106 -1.652977683E-03 -1.649999996E-03  9.883474365E-04  2.102744462E-03  3.790847708E+01  5.942600000E+02  7.521900515E-01 
       107 -1.155706233E-03 -1.649999999E-03  9.882811823E-04  2.102745596E-03  3.789390424E+01  5.942600000E+02  7.521879136E-01 
       108 -7.328599352E-04 -1.649999953E-03  9.882105507E-04  2.102746843E-03  3.788603020E+01  5.942599823E+02  7.521867195E-01 
       109  1.231666688E-02 -1.649999993E-03  9.882706246E-04  7.177650222E-03  4.146851523E+01  5.942600064E+02  6.979460682E-01 
       110 -1.238224737E-02 -1.650000051E-03  9.884166253E-04  8.346319951E-03  4.147596385E+01  5.942600603E+02  0.000000000E+00 
       111 -1.231697450E-02 -1.649999999E-03  9.884940960E-04  7.257953966E-03  4.146266770E+01  5.942600062E+02  6.998047737E-01 
       112 -2.327584992E-03 -1.649999952E-03  9.884358288E-04  2.102743155E-03  3.793841042E+01  5.942599823E+02  7.521936863E-01 
       113  1.238241434E-02 -1.650000051E-03  9.884166253E-04  8.271980058E-03  4.147986635E+01  5.942600604E+02  0.000000000E+00 
       114 -1.223864467E-02 -1.650000051E-03  9.885870638E-04  2.375103943E-03  4.138707793E+01  5.942600186E+02  7.476803551E-01 
       115 -1.214464338E-02 -1.649999994E-03  9.886984689E-04  2.031637430E-03  4.127242215E+01  5.942600000E+02  7.544087453E-01 
       116 -4.517199587E-03 -1.649999963E-03  9.887236864E-04  2.102741914E-03  3.811136344E+01  5.942599867E+02  7.522157954E-01 
       117 -4.414670316E-03 -1.650000033E-03  9.887104562E-04  2.102741914E-03  3.810048043E+01  5.942600133E+02  7.522142487E-01 
       118 -3.651595001E-03 -1.650000048E-03  9.886098026E-04  2.102741890E-03  3.802932507E+01  5.942600177E+02  7.522046409E-01 
       119 -3.094823677E-03 -1.650000049E-03  9.885372614E-04  2.102742216E-03  3.798518078E+01  5.942600177E+02  7.521992037E-01 
       120 -2.793029229E-03 -1.649999951E-03  9.884973581E-04  2.102742437E-03  3.796475012E+01  5.942599823E+02  7.521967758E-01 
       121 -1.203183536E-02 -1.650000008E-03  9.888320552E-04  2.060700646E-03  4.112959322E+01  5.942599999E+02  7.547540517E-01 
       122 -5.373331867E-03 -1.650000002E-03  9.888373881E-04  2.102743825E-03  3.822060822E+01  5.942600000E+02  7.522328866E-01 
       123 -4.706021831E-03 -1.649999978E-03  9.887486688E-04  2.102742332E-03  3.813470387E+01  5.942599911E+02  7.522195026E-01 
       124 -1.189645587E-02 -1.650000052E-03  9.889921867E-04  2.080003057E-03  4.096174322E+01  5.942600176E+02  7.545637462E-01 
       125 -5.769750150E-03 -1.650000058E-03  9.888914969E-04  2.102745628E-03  3.828065729E+01  5.942600177E+02  7.522435782E-01 
       126 -7.038392819E-03 -1.649999978E-03  9.890637268E-04  2.102756241E-03  3.851377794E+01  5.942599911E+02  7.522930931E-01 
       127 -6.777981764E-03 -1.650000004E-03  9.890279205E-04  2.102753740E-03  3.846228199E+01  5.942600000E+02  7.522818038E-01 
       128 -6.208507374E-03 -1.649999986E-03  9.889500532E-04  2.102748148E-03  3.835260222E+01  5.942600000E+02  7.522570739E-01 
       129 -1.173398426E-02 -1.649999973E-03  9.891839625E-04  2.090462015E-03  4.077885465E+01  5.942599911E+02  7.542926789E-01 
       130 -7.317166953E-03 -1.650000004E-03  9.891033433E-04  2.102761478E-03  3.858053607E+01  5.942600000E+02  7.523116233E-01 
       131 -8.713682192E-03 -1.650000053E-03  9.893002256E-04  2.102806897E-03  3.897995277E+01  5.942600177E+02  7.524496298E-01 
       132 -8.332633425E-03 -1.649999946E-03  9.892454469E-04  2.102791485E-03  3.886034984E+01  5.942599823E+02  7.524049111E-01 
       133 -7.874710432E-03 -1.649999955E-03  9.891805000E-04  2.102773290E-03  3.872176299E+01  5.942599823E+02  7.523521266E-01 
       134 -1.153899587E-02 -1.649999945E-03  9.894136741E-04  2.096429003E-03  4.058421119E+01  5.942599822E+02  7.540000439E-01 
       135 -9.733691370E-03 -1.650000000E-03  9.894490791E-04  2.102816447E-03  3.940642286E+01  5.942600000E+02  7.527093143E-01 
       136 -9.556210586E-03 -1.650000046E-03  9.894235574E-04  2.102856829E-03  3.931374899E+01  5.942600177E+02  7.526316175E-01 
       137 -9.266405885E-03 -1.650000050E-03  9.893819229E-04  2.102839233E-03  3.919655679E+01  5.942600177E+02  7.525672391E-01 
       138 -1.041736222E-02 -1.649999955E-03  9.895527119E-04  2.102670537E-03  3.977077372E+01  5.942599823E+02  7.530100163E-01 
       139 -1.130497527E-02 -1.649999952E-03  9.896886455E-04  2.099784596E-03  4.037741366E+01  5.942599822E+02  7.537049914E-01 
       140 -1.104863784E-02 -1.650000007E-03  9.896471749E-04  2.100624391E-03  4.019925835E+01  5.942599999E+02  7.535013839E-01 
       141  1.110265300E-02 -1.649999997E-03  1.972140752E-03  2.085663076E-03  3.947904080E+01  5.942600000E+02  7.549665426E-01 
       142  1.129766783E-02 -1.649999997E-03  1.972047450E-03  2.084218621E-03  3.954257788E+01  5.942600000E+02  7.552445493E-01 
       143  1.038834619E-02 -1.649999990E-03  1.972439484E-03  2.090763253E-03  3.925009998E+01  5.942600000E+02  7.539867256E-01 
       144  9.996815845E-03 -1.649999998E-03  1.972603110E-03  2.091017008E-03  3.912763450E+01  5.942600000E+02  7.536655483E-01 
       145  9.485811853E-03 -1.649999993E-03  1.972800993E-03  2.091326895E-03  3.897205818E+01  5.942600000E+02  7.532593353E-01 
       146  8.598398070E-03 -1.649999998E-03  1.973137196E-03  2.091251444E-03  3.872661678E+01  5.942600000E+02  7.528789999E-01 
       147  8.805409659E-03 -1.650000022E-03  1.973060752E-03  2.091267982E-03  3.878216777E+01  5.942600088E+02  7.529656014E-01 
       148  1.153328860E-02 -1.649999970E-03  1.973080771E-03  2.077250524E-03  3.960971587E+01  5.942599911E+02  7.557318354E-01 
       149  8.091608969E-03 -1.650000003E-03  1.973322042E-03  2.091214329E-03  3.860690984E+01  5.942600000E+02  7.527566167E-01 
       150  7.572601876E-03 -1.650000025E-03  1.973515861E-03  2.091181713E-03  3.849223098E+01  5.942600088E+02  7.526485904E-01 
       151  7.730469083E-03 -1.650000002E-03  1.973458047E-03  2.091188478E-03  3.852354788E+01  5.942600000E+02  7.526715696E-01 
