nodenumber     x-coordinate     y-coordinate     z-coordinate turb-kinetic-energy         pressure      temperature velocity-magnitude 
         1 -1.238224696E-02 -1.650000007E-03  0.000000000E+00  4.628149629E-03  4.439762292E+01  5.942600183E+02  0.000000000E+00 
         2 -1.231646687E-02 -1.649999949E-03  0.000000000E+00  2.242720398E-03  4.432842023E+01  5.942599823E+02  7.733425858E-01 
         3 -1.223752875E-02 -1.650000008E-03  0.000000000E+00  2.242720465E-03  4.415485192E+01  5.942600000E+02  7.733426088E-01 
         4 -1.214279805E-02 -1.649999951E-03  0.000000000E+00  2.242720398E-03  4.392954686E+01  5.942599823E+02  7.733425858E-01 
         5 -1.202911553E-02 -1.649999951E-03  0.000000000E+00  2.242720398E-03  4.366898921E+01  5.942599823E+02  7.733425858E-01 
         6 -1.189268779E-02 -1.650000001E-03  0.000000000E+00  2.242720465E-03  4.338128066E+01  5.942600000E+02  7.733426088E-01 
         7 -1.172896070E-02 -1.650000028E-03  0.000000000E+00  2.242720498E-03  4.307832855E+01  5.942600089E+02  7.733426203E-01 
         8 -1.153246726E-02 -1.649999968E-03  0.000000000E+00  2.242720431E-03  4.276313339E+01  5.942599911E+02  7.733425973E-01 
         9 -1.129664480E-02 -1.649999999E-03  0.000000000E+00  2.242720465E-03  4.228946951E+01  5.942600000E+02  7.733426088E-01 
        10 -1.104180182E-02 -1.649999952E-03  0.000000000E+00  2.242720398E-03  4.209347372E+01  5.942599823E+02  7.733425858E-01 
        11 -1.040965475E-02 -1.650000037E-03  0.000000000E+00  2.242720532E-03  4.161857794E+01  5.942600177E+02  7.733426319E-01 
        12 -9.727797567E-03 -1.649999974E-03  0.000000000E+00  2.242720431E-03  4.114821311E+01  5.942599911E+02  7.733425973E-01 
        13 -9.549135039E-03 -1.650000016E-03  0.000000000E+00  2.242720498E-03  4.102656078E+01  5.942600089E+02  7.733426203E-01 
        14 -9.257402967E-03 -1.649999996E-03  0.000000000E+00  2.242720465E-03  4.088484642E+01  5.942600000E+02  7.733426088E-01 
        15 -8.707201624E-03 -1.650000004E-03  0.000000000E+00  2.242720465E-03  4.062440133E+01  5.942600000E+02  7.733426088E-01 
        16 -8.327874969E-03 -1.650000002E-03  0.000000000E+00  2.242720465E-03  4.048404393E+01  5.942600000E+02  7.733426088E-01 
        17 -7.868819436E-03 -1.650000009E-03  0.000000000E+00  2.242720465E-03  4.031924390E+01  5.942600000E+02  7.733426088E-01 
        18 -7.309914944E-03 -1.650000005E-03  0.000000000E+00  2.242720465E-03  4.015719432E+01  5.942600000E+02  7.733426088E-01 
        19 -7.033056079E-03 -1.649999952E-03  0.000000000E+00  2.242720398E-03  4.008171624E+01  5.942599823E+02  7.733425858E-01 
        20 -6.774404682E-03 -1.650000049E-03  0.000000000E+00  2.242720532E-03  4.002508519E+01  5.942600177E+02  7.733426319E-01 
        21 -6.203718579E-03 -1.649999993E-03  0.000000000E+00  2.242720465E-03  3.990454950E+01  5.942600000E+02  7.733426088E-01 
        22 -5.764059055E-03 -1.650000057E-03  0.000000000E+00  2.242720532E-03  3.982408392E+01  5.942600177E+02  7.733426319E-01 
        23 -5.369046210E-03 -1.650000008E-03  0.000000000E+00  2.242720465E-03  3.975805912E+01  5.942600000E+02  7.733426088E-01 
        24 -4.703991919E-03 -1.649999998E-03  0.000000000E+00  2.242720465E-03  3.966399338E+01  5.942600000E+02  7.733426088E-01 
        25 -4.513416810E-03 -1.649999963E-03  0.000000000E+00  2.242720415E-03  3.963802886E+01  5.942599867E+02  7.733425915E-01 
        26 -4.409949101E-03 -1.650000002E-03  0.000000000E+00  2.242720465E-03  3.962605369E+01  5.942600000E+02  7.733426088E-01 
        27 -3.648226494E-03 -1.649999989E-03  0.000000000E+00  2.242720465E-03  3.954849906E+01  5.942600000E+02  7.733426088E-01 
        28 -3.090814824E-03 -1.649999990E-03  0.000000000E+00  2.242720465E-03  3.949970873E+01  5.942600000E+02  7.733426088E-01 
        29 -2.790049428E-03 -1.649999975E-03  0.000000000E+00  2.242720431E-03  3.947745814E+01  5.942599911E+02  7.733425973E-01 
        30 -2.326109559E-03 -1.650000046E-03  0.000000000E+00  2.242720532E-03  3.944928631E+01  5.942600177E+02  7.733426319E-01 
        31 -1.966101120E-03 -1.650000005E-03  0.000000000E+00  2.242720465E-03  3.942979018E+01  5.942600000E+02  7.733426088E-01 
        32 -1.649288649E-03 -1.650000004E-03  0.000000000E+00  2.242720465E-03  3.941728838E+01  5.942600000E+02  7.733426088E-01 
        33 -1.153324779E-03 -1.650000049E-03  0.000000000E+00  2.242720532E-03  3.940237899E+01  5.942600177E+02  7.733426319E-01 
        34 -7.314993435E-04 -1.649999992E-03  0.000000000E+00  2.242720465E-03  3.939403103E+01  5.942600000E+02  7.733426088E-01 
        35 -3.521276869E-04 -1.650000043E-03  0.000000000E+00  2.242720532E-03  3.938936056E+01  5.942600177E+02  7.733426319E-01 
        36  2.062356178E-04 -1.650000004E-03  0.000000000E+00  2.242720465E-03  3.938912574E+01  5.942600000E+02  7.733426088E-01 
        37  4.531226353E-04 -1.649999970E-03  0.000000000E+00  2.242720431E-03  3.939038489E+01  5.942599911E+02  7.733425973E-01 
        38  5.816147412E-04 -1.650000031E-03  0.000000000E+00  2.242720498E-03  3.939282137E+01  5.942600089E+02  7.733426203E-01 
        39  1.287381078E-03 -1.649999940E-03  0.000000000E+00  2.242720398E-03  3.941233582E+01  5.942599823E+02  7.733425858E-01 
        40  1.817906072E-03 -1.650000045E-03  0.000000000E+00  2.242720532E-03  3.943279462E+01  5.942600177E+02  7.733426319E-01 
        41  2.171618469E-03 -1.649999958E-03  0.000000000E+00  2.242720398E-03  3.945060619E+01  5.942599823E+02  7.733425858E-01 
        42  2.917015337E-03 -1.650000026E-03  0.000000000E+00  2.242720498E-03  3.949819307E+01  5.942600089E+02  7.733426203E-01 
        43  3.060138752E-03 -1.649999982E-03  0.000000000E+00  2.242720440E-03  3.950795881E+01  5.942599934E+02  7.733426002E-01 
        44  3.122627803E-03 -1.650000012E-03  0.000000000E+00  2.242720482E-03  3.951309014E+01  5.942600044E+02  7.733426146E-01 
        45  3.948750735E-03 -1.649999946E-03  0.000000000E+00  2.242720398E-03  3.959130155E+01  5.942599823E+02  7.733425858E-01 
        46  4.233552192E-03 -1.650000005E-03  0.000000000E+00  2.242720465E-03  3.962035632E+01  5.942600000E+02  7.733426088E-01 
        47  4.833507872E-03 -1.649999945E-03  0.000000000E+00  2.242720398E-03  3.969523622E+01  5.942599823E+02  7.733425858E-01 
        48  5.160210487E-03 -1.649999946E-03  0.000000000E+00  2.242720398E-03  3.974138732E+01  5.942599823E+02  7.733425858E-01 
        49  5.783248106E-03 -1.650000052E-03  0.000000000E+00  2.242720532E-03  3.984575695E+01  5.942600177E+02  7.733426319E-01 
        50  6.035984549E-03 -1.649999976E-03  0.000000000E+00  2.242720431E-03  3.989053498E+01  5.942599911E+02  7.733425973E-01 
        51  6.237400109E-03 -1.650000022E-03  0.000000000E+00  2.242720498E-03  3.993142431E+01  5.942600089E+02  7.733426203E-01 
        52  6.881112835E-03 -1.650000056E-03  0.000000000E+00  2.242720532E-03  4.006822814E+01  5.942600177E+02  7.733426319E-01 
        53  7.573470319E-03 -1.649999997E-03  0.000000000E+00  2.242720465E-03  4.024982029E+01  5.942600000E+02  7.733426088E-01 
        54  7.730792309E-03 -1.650000003E-03  0.000000000E+00  2.242720465E-03  4.029251569E+01  5.942600000E+02  7.733426088E-01 
        55  8.090815089E-03 -1.650000001E-03  0.000000000E+00  2.242720465E-03  4.041699209E+01  5.942600000E+02  7.733426088E-01 
        56  8.598449542E-03 -1.650000003E-03  0.000000000E+00  2.242720465E-03  4.059677374E+01  5.942600000E+02  7.733426088E-01 
        57  8.805739513E-03 -1.650000003E-03  0.000000000E+00  2.242720465E-03  4.069296181E+01  5.942600000E+02  7.733426088E-01 
        58  9.485623847E-03 -1.649999997E-03  0.000000000E+00  2.242720465E-03  4.102059217E+01  5.942600000E+02  7.733426088E-01 
        59  9.996717122E-03 -1.650000053E-03  0.000000000E+00  2.242720532E-03  4.136313568E+01  5.942600177E+02  7.733426319E-01 
        60  1.038796781E-02 -1.650000000E-03  0.000000000E+00  2.242720465E-03  4.163701089E+01  5.942600000E+02  7.733426088E-01 
        61  1.110225324E-02 -1.650000050E-03  0.000000000E+00  2.242720532E-03  4.218008704E+01  5.942600177E+02  7.733426319E-01 
        62  1.129715473E-02 -1.650000051E-03  0.000000000E+00  2.242720532E-03  4.233139829E+01  5.942600177E+02  7.733426319E-01 
        63  1.153289457E-02 -1.649999949E-03  0.000000000E+00  2.242720398E-03  4.281593868E+01  5.942599823E+02  7.733425858E-01 
        64  1.172932302E-02 -1.649999996E-03  0.000000000E+00  2.242720465E-03  4.314112086E+01  5.942600000E+02  7.733426088E-01 
        65  1.189299876E-02 -1.650000052E-03  0.000000000E+00  2.242720532E-03  4.345523794E+01  5.942600177E+02  7.733426319E-01 
        66  1.202938442E-02 -1.649999949E-03  0.000000000E+00  2.242720398E-03  4.375526696E+01  5.942599823E+02  7.733425858E-01 
        67  1.214303390E-02 -1.650000044E-03  0.000000000E+00  2.242720532E-03  4.402797053E+01  5.942600177E+02  7.733426319E-01 
        68  1.223773642E-02 -1.650000012E-03  0.000000000E+00  2.242720465E-03  4.426444662E+01  5.942600000E+02  7.733426088E-01 
        69  1.231665286E-02 -1.650000046E-03  0.000000000E+00  2.242720532E-03  4.444661550E+01  5.942600177E+02  7.733426319E-01 
        70  1.238241385E-02 -1.649999998E-03  0.000000000E+00  4.599023044E-03  4.451880831E+01  5.942600183E+02  0.000000000E+00 
        71  1.110245300E-02 -1.649999996E-03  9.860657205E-04  2.221160936E-03  4.185181596E+01  5.942599999E+02  7.748708363E-01 
        72  1.129741118E-02 -1.649999994E-03  9.860237298E-04  2.220561947E-03  4.199401979E+01  5.942599999E+02  7.750403555E-01 
        73  1.038815708E-02 -1.649999987E-03  9.861987235E-04  2.223273376E-03  4.134632957E+01  5.942600000E+02  7.742756736E-01 
        74  8.805574705E-03 -1.650000021E-03  9.864727040E-04  2.223328575E-03  4.057358028E+01  5.942600088E+02  7.737221744E-01 
        75  9.485717905E-03 -1.650000014E-03  9.863583903E-04  2.223382220E-03  4.085562311E+01  5.942600000E+02  7.738690357E-01 
        76  9.996766092E-03 -1.649999943E-03  9.862710097E-04  2.223322546E-03  4.113017231E+01  5.942599823E+02  7.740959077E-01 
        77  7.730630904E-03 -1.650000039E-03  9.866502961E-04  2.223274507E-03  4.021681205E+01  5.942600133E+02  7.735817182E-01 
        78  8.091212126E-03 -1.649999999E-03  9.865892570E-04  2.223290285E-03  4.032911450E+01  5.942600000E+02  7.736214417E-01 
        79  8.598423723E-03 -1.649999983E-03  9.865066297E-04  2.223313046E-03  4.049081366E+01  5.942599911E+02  7.736787307E-01 
        80  1.153309208E-02 -1.650000032E-03  9.865404178E-04  2.217264713E-03  4.220842739E+01  5.942600088E+02  7.753666833E-01 
        81  7.573036225E-03 -1.650000030E-03  9.866765862E-04  2.223270557E-03  4.017706639E+01  5.942600088E+02  7.735714046E-01 
        82  5.783215100E-03 -1.650000004E-03  9.869826635E-04  2.223237625E-03  3.979881852E+01  5.942600000E+02  7.734858972E-01 
        83  6.035506259E-03 -1.649999949E-03  9.869375075E-04  2.223240455E-03  3.983950727E+01  5.942599823E+02  7.734925172E-01 
        84  6.236595952E-03 -1.650000002E-03  9.869024133E-04  2.223243694E-03  3.987859692E+01  5.942600000E+02  7.735005928E-01 
        85  6.880806203E-03 -1.649999944E-03  9.867931445E-04  2.223253658E-03  4.000802778E+01  5.942599823E+02  7.735266903E-01 
        86  1.172947215E-02 -1.650000029E-03  9.869723181E-04  2.211367739E-03  4.241114604E+01  5.942600088E+02  7.756925986E-01 
        87  4.832561986E-03 -1.649999941E-03  9.871570102E-04  2.223228092E-03  3.965747714E+01  5.942599823E+02  7.734640174E-01 
        88  5.159606270E-03 -1.650000004E-03  9.870976822E-04  2.223230925E-03  3.970230111E+01  5.942600000E+02  7.734704362E-01 
        89  3.947734035E-03 -1.649999955E-03  9.873277149E-04  2.223221196E-03  3.955501392E+01  5.942599823E+02  7.734502610E-01 
        90  4.232942892E-03 -1.649999946E-03  9.872707921E-04  2.223223252E-03  3.958392233E+01  5.942599823E+02  7.734537469E-01 
        91  1.189310817E-02 -1.649999954E-03  9.873330752E-04  2.201063058E-03  4.260256031E+01  5.942599822E+02  7.759968316E-01 
        92  2.914795121E-03 -1.649999999E-03  9.875323253E-04  2.223214493E-03  3.946642065E+01  5.942600000E+02  7.734399977E-01 
        93  3.058937451E-03 -1.650000039E-03  9.875036176E-04  2.223215381E-03  3.947591949E+01  5.942600133E+02  7.734409809E-01 
        94  3.121859929E-03 -1.649999985E-03  9.874906111E-04  2.223215715E-03  3.948078240E+01  5.942599956E+02  7.734414851E-01 
        95  1.285714191E-03 -1.649999950E-03  9.878538017E-04  2.223205563E-03  3.938325631E+01  5.942599823E+02  7.734313066E-01 
        96  1.816924899E-03 -1.650000049E-03  9.877480907E-04  2.223208401E-03  3.940323975E+01  5.942600177E+02  7.734335608E-01 
        97  2.170191834E-03 -1.650000044E-03  9.876810309E-04  2.223210242E-03  3.942057381E+01  5.942600177E+02  7.734353443E-01 
        98  1.202946298E-02 -1.649999953E-03  9.876343321E-04  2.182195377E-03  4.277856059E+01  5.942599822E+02  7.762191152E-01 
        99  1.214308635E-02 -1.649999988E-03  9.878858045E-04  2.152553109E-03  4.292837672E+01  5.942600000E+02  7.758861269E-01 
       100 -3.542577826E-04 -1.650000007E-03  9.881497301E-04  2.223198658E-03  3.936074263E+01  5.942600000E+02  7.734289715E-01 
       101  2.031021205E-04 -1.649999952E-03  9.880507533E-04  2.223200757E-03  3.936086961E+01  5.942599823E+02  7.734290319E-01 
       102  4.512136878E-04 -1.649999952E-03  9.880065915E-04  2.223201757E-03  3.936212849E+01  5.942599823E+02  7.734289800E-01 
       103  5.803136392E-04 -1.649999997E-03  9.879823968E-04  2.223202421E-03  3.936458299E+01  5.942600000E+02  7.734295349E-01 
       104  1.223776813E-02 -1.650000009E-03  9.880956075E-04  2.488646842E-03  4.304759998E+01  5.942600009E+02  7.688249479E-01 
       105 -1.968786396E-03 -1.649999951E-03  9.883890366E-04  2.223194043E-03  3.940068066E+01  5.942599823E+02  7.734345944E-01 
       106 -1.652977683E-03 -1.649999996E-03  9.883474365E-04  2.223194796E-03  3.938841146E+01  5.942600000E+02  7.734330633E-01 
       107 -1.155706233E-03 -1.649999999E-03  9.882811823E-04  2.223196006E-03  3.937339163E+01  5.942600000E+02  7.734308485E-01 
       108 -7.328599352E-04 -1.649999953E-03  9.882105507E-04  2.223197331E-03  3.936534344E+01  5.942599823E+02  7.734296422E-01 
       109  1.231666688E-02 -1.649999993E-03  9.882706246E-04  7.526916159E-03  4.312425415E+01  5.942600068E+02  7.181287088E-01 
       110 -1.238224737E-02 -1.650000051E-03  9.884166253E-04  8.750107973E-03  4.312571309E+01  5.942600627E+02  0.000000000E+00 
       111 -1.231697450E-02 -1.649999999E-03  9.884940960E-04  7.610758665E-03  4.311177758E+01  5.942600065E+02  7.200336490E-01 
       112 -2.327584992E-03 -1.649999952E-03  9.884358288E-04  2.223193397E-03  3.941943011E+01  5.942599823E+02  7.734368059E-01 
       113  1.238241434E-02 -1.650000051E-03  9.884166253E-04  8.672488410E-03  4.313615959E+01  5.942600628E+02  0.000000000E+00 
       114 -1.223864467E-02 -1.650000051E-03  9.885870638E-04  2.501148317E-03  4.303249734E+01  5.942600186E+02  7.688634999E-01 
       115 -1.214464338E-02 -1.649999994E-03  9.886984689E-04  2.148157568E-03  4.291216137E+01  5.942600000E+02  7.756969402E-01 
       116 -4.517199587E-03 -1.649999963E-03  9.887236864E-04  2.223191986E-03  3.959950391E+01  5.942599867E+02  7.734595066E-01 
       117 -4.414670316E-03 -1.650000033E-03  9.887104562E-04  2.223191992E-03  3.958815112E+01  5.942600133E+02  7.734579210E-01 
       118 -3.651595001E-03 -1.650000048E-03  9.886098026E-04  2.223192008E-03  3.951398978E+01  5.942600177E+02  7.734480623E-01 
       119 -3.094823677E-03 -1.650000049E-03  9.885372614E-04  2.223192378E-03  3.946802824E+01  5.942600177E+02  7.734424807E-01 
       120 -2.793029229E-03 -1.649999951E-03  9.884973581E-04  2.223192623E-03  3.944678313E+01  5.942599823E+02  7.734399861E-01 
       121 -1.203183536E-02 -1.650000008E-03  9.888320552E-04  2.179009046E-03  4.276243125E+01  5.942599999E+02  7.760449315E-01 
       122 -5.373331867E-03 -1.650000002E-03  9.888373881E-04  2.223193935E-03  3.971357141E+01  5.942600000E+02  7.734770200E-01 
       123 -4.706021831E-03 -1.649999978E-03  9.887486688E-04  2.223192412E-03  3.962387292E+01  5.942599911E+02  7.734633053E-01 
       124 -1.189645587E-02 -1.650000052E-03  9.889921867E-04  2.199261528E-03  4.258650852E+01  5.942600176E+02  7.758507291E-01 
       125 -5.769750150E-03 -1.650000058E-03  9.888914969E-04  2.223195797E-03  3.977633264E+01  5.942600177E+02  7.734879650E-01 
       126 -7.038392819E-03 -1.649999978E-03  9.890637268E-04  2.223206804E-03  4.002022550E+01  5.942599911E+02  7.735385662E-01 
       127 -6.777981764E-03 -1.650000004E-03  9.890279205E-04  2.223204208E-03  3.996633562E+01  5.942600000E+02  7.735270320E-01 
       128 -6.208507374E-03 -1.649999986E-03  9.889500532E-04  2.223198404E-03  3.985155611E+01  5.942600000E+02  7.735017703E-01 
       129 -1.173398426E-02 -1.649999973E-03  9.891839625E-04  2.210252781E-03  4.239488671E+01  5.942599911E+02  7.755746229E-01 
       130 -7.317166953E-03 -1.650000004E-03  9.891033433E-04  2.223212248E-03  4.009014830E+01  5.942600000E+02  7.735574662E-01 
       131 -8.713682192E-03 -1.650000053E-03  9.893002256E-04  2.223259402E-03  4.050872594E+01  5.942600177E+02  7.736980778E-01 
       132 -8.332633425E-03 -1.649999946E-03  9.892454469E-04  2.223243403E-03  4.038335623E+01  5.942599823E+02  7.736525284E-01 
       133 -7.874710432E-03 -1.649999955E-03  9.891805000E-04  2.223224524E-03  4.023809027E+01  5.942599823E+02  7.735987668E-01 
       134 -1.153899587E-02 -1.649999945E-03  9.894136741E-04  2.216531421E-03  4.219092434E+01  5.942599822E+02  7.752765788E-01 
       135 -9.733691370E-03 -1.650000000E-03  9.894490791E-04  2.223267432E-03  4.095594954E+01  5.942600000E+02  7.739624201E-01 
       136 -9.556210586E-03 -1.650000046E-03  9.894235574E-04  2.223310686E-03  4.085875958E+01  5.942600177E+02  7.738833301E-01 
       137 -9.266405885E-03 -1.650000050E-03  9.893819229E-04  2.223292620E-03  4.073586557E+01  5.942600177E+02  7.738177970E-01 
       138 -1.041736222E-02 -1.649999955E-03  9.895527119E-04  2.223110974E-03  4.133806407E+01  5.942599822E+02  7.742685116E-01 
       139 -1.130497527E-02 -1.649999952E-03  9.896886455E-04  2.220065292E-03  4.197416679E+01  5.942599822E+02  7.749761060E-01 
       140 -1.104863784E-02 -1.650000007E-03  9.896471749E-04  2.220951576E-03  4.178735712E+01  5.942599999E+02  7.747688025E-01 
       141  1.110265300E-02 -1.649999997E-03  1.972140752E-03  2.205137791E-03  4.103931623E+01  5.942600000E+02  7.762618975E-01 
       142  1.129766783E-02 -1.649999997E-03  1.972047450E-03  2.203614146E-03  4.110602237E+01  5.942600000E+02  7.765450764E-01 
       143  1.038834619E-02 -1.649999990E-03  1.972439484E-03  2.210517759E-03  4.079895307E+01  5.942600000E+02  7.752638611E-01 
       144  9.996815845E-03 -1.649999998E-03  1.972603110E-03  2.210787609E-03  4.067040925E+01  5.942600000E+02  7.749366961E-01 
       145  9.485811853E-03 -1.649999993E-03  1.972800993E-03  2.211117197E-03  4.050710565E+01  5.942600000E+02  7.745229094E-01 
       146  8.598398070E-03 -1.649999998E-03  1.973137196E-03  2.211039994E-03  4.024951348E+01  5.942600000E+02  7.741354170E-01 
       147  8.805409659E-03 -1.650000022E-03  1.973060752E-03  2.211056901E-03  4.030781733E+01  5.942600088E+02  7.742236478E-01 
       148  1.153328860E-02 -1.649999970E-03  1.973080771E-03  2.196274355E-03  4.117652901E+01  5.942599911E+02  7.770413553E-01 
       149  8.091608969E-03 -1.650000003E-03  1.973322042E-03  2.211001421E-03  4.012388255E+01  5.942600000E+02  7.740106941E-01 
       150  7.572601876E-03 -1.650000025E-03  1.973515861E-03  2.210967500E-03  4.000352490E+01  5.942600088E+02  7.739005920E-01 
       151  7.730469083E-03 -1.650000002E-03  1.973458047E-03  2.210974551E-03  4.003639262E+01  5.942600000E+02  7.739240208E-01 
