nodenumber     x-coordinate     y-coordinate     z-coordinate turb-kinetic-energy         pressure      temperature velocity-magnitude 
         1 -1.238224696E-02 -1.650000007E-03  0.000000000E+00  3.970741141E-03  3.935613333E+01  5.942600154E+02  0.000000000E+00 
         2 -1.231646687E-02 -1.649999949E-03  0.000000000E+00  1.886337139E-03  3.929621980E+01  5.942599823E+02  7.092413003E-01 
         3 -1.223752875E-02 -1.650000008E-03  0.000000000E+00  1.886337195E-03  3.914621191E+01  5.942600000E+02  7.092413214E-01 
         4 -1.214279805E-02 -1.649999951E-03  0.000000000E+00  1.886337139E-03  3.895174323E+01  5.942599823E+02  7.092413003E-01 
         5 -1.202911553E-02 -1.649999951E-03  0.000000000E+00  1.886337139E-03  3.872656828E+01  5.942599823E+02  7.092413003E-01 
         6 -1.189268779E-02 -1.650000001E-03  0.000000000E+00  1.886337195E-03  3.847751998E+01  5.942600000E+02  7.092413214E-01 
         7 -1.172896070E-02 -1.650000028E-03  0.000000000E+00  1.886337223E-03  3.821515194E+01  5.942600089E+02  7.092413320E-01 
         8 -1.153246726E-02 -1.649999968E-03  0.000000000E+00  1.886337167E-03  3.794224791E+01  5.942599911E+02  7.092413108E-01 
         9 -1.129664480E-02 -1.649999999E-03  0.000000000E+00  1.886337195E-03  3.753246240E+01  5.942600000E+02  7.092413214E-01 
        10 -1.104180182E-02 -1.649999952E-03  0.000000000E+00  1.886337139E-03  3.736303447E+01  5.942599823E+02  7.092413003E-01 
        11 -1.040965475E-02 -1.650000037E-03  0.000000000E+00  1.886337251E-03  3.695249267E+01  5.942600177E+02  7.092413426E-01 
        12 -9.727797567E-03 -1.649999974E-03  0.000000000E+00  1.886337167E-03  3.654608579E+01  5.942599911E+02  7.092413108E-01 
        13 -9.549135039E-03 -1.650000016E-03  0.000000000E+00  1.886337223E-03  3.644096879E+01  5.942600089E+02  7.092413320E-01 
        14 -9.257402967E-03 -1.649999996E-03  0.000000000E+00  1.886337195E-03  3.631845676E+01  5.942600000E+02  7.092413214E-01 
        15 -8.707201624E-03 -1.650000004E-03  0.000000000E+00  1.886337195E-03  3.609328496E+01  5.942600000E+02  7.092413214E-01 
        16 -8.327874969E-03 -1.650000002E-03  0.000000000E+00  1.886337195E-03  3.597170820E+01  5.942600000E+02  7.092413214E-01 
        17 -7.868819436E-03 -1.650000009E-03  0.000000000E+00  1.886337195E-03  3.582895469E+01  5.942600000E+02  7.092413214E-01 
        18 -7.309914944E-03 -1.650000005E-03  0.000000000E+00  1.886337195E-03  3.568821239E+01  5.942600000E+02  7.092413214E-01 
        19 -7.033056079E-03 -1.649999952E-03  0.000000000E+00  1.886337139E-03  3.562262381E+01  5.942599823E+02  7.092413003E-01 
        20 -6.774404682E-03 -1.650000049E-03  0.000000000E+00  1.886337251E-03  3.557324906E+01  5.942600177E+02  7.092413426E-01 
        21 -6.203718579E-03 -1.649999993E-03  0.000000000E+00  1.886337195E-03  3.546817187E+01  5.942600000E+02  7.092413214E-01 
        22 -5.764059055E-03 -1.650000057E-03  0.000000000E+00  1.886337251E-03  3.539781063E+01  5.942600177E+02  7.092413426E-01 
        23 -5.369046210E-03 -1.650000008E-03  0.000000000E+00  1.886337195E-03  3.533999965E+01  5.942600000E+02  7.092413214E-01 
        24 -4.703991919E-03 -1.649999998E-03  0.000000000E+00  1.886337195E-03  3.525738134E+01  5.942600000E+02  7.092413214E-01 
        25 -4.513416810E-03 -1.649999963E-03  0.000000000E+00  1.886337153E-03  3.523457278E+01  5.942599867E+02  7.092413056E-01 
        26 -4.409949101E-03 -1.650000002E-03  0.000000000E+00  1.886337195E-03  3.522402678E+01  5.942600000E+02  7.092413214E-01 
        27 -3.648226494E-03 -1.649999989E-03  0.000000000E+00  1.886337195E-03  3.515554056E+01  5.942600000E+02  7.092413214E-01 
        28 -3.090814824E-03 -1.649999990E-03  0.000000000E+00  1.886337195E-03  3.511233428E+01  5.942600000E+02  7.092413214E-01 
        29 -2.790049428E-03 -1.649999975E-03  0.000000000E+00  1.886337167E-03  3.509255834E+01  5.942599911E+02  7.092413108E-01 
        30 -2.326109559E-03 -1.650000046E-03  0.000000000E+00  1.886337251E-03  3.506743054E+01  5.942600177E+02  7.092413426E-01 
        31 -1.966101120E-03 -1.650000005E-03  0.000000000E+00  1.886337195E-03  3.504999724E+01  5.942600000E+02  7.092413214E-01 
        32 -1.649288649E-03 -1.650000004E-03  0.000000000E+00  1.886337195E-03  3.503872986E+01  5.942600000E+02  7.092413214E-01 
        33 -1.153324779E-03 -1.650000049E-03  0.000000000E+00  1.886337251E-03  3.502515611E+01  5.942600177E+02  7.092413426E-01 
        34 -7.314993435E-04 -1.649999992E-03  0.000000000E+00  1.886337195E-03  3.501741025E+01  5.942600000E+02  7.092413214E-01 
        35 -3.521276869E-04 -1.650000043E-03  0.000000000E+00  1.886337251E-03  3.501292760E+01  5.942600177E+02  7.092413426E-01 
        36  2.062356178E-04 -1.650000004E-03  0.000000000E+00  1.886337195E-03  3.501216431E+01  5.942600000E+02  7.092413214E-01 
        37  4.531226353E-04 -1.649999970E-03  0.000000000E+00  1.886337167E-03  3.501301947E+01  5.942599911E+02  7.092413108E-01 
        38  5.816147412E-04 -1.650000031E-03  0.000000000E+00  1.886337223E-03  3.501502050E+01  5.942600089E+02  7.092413320E-01 
        39  1.287381078E-03 -1.649999940E-03  0.000000000E+00  1.886337139E-03  3.503136686E+01  5.942599823E+02  7.092413003E-01 
        40  1.817906072E-03 -1.650000045E-03  0.000000000E+00  1.886337251E-03  3.504871487E+01  5.942600177E+02  7.092413426E-01 
        41  2.171618469E-03 -1.649999958E-03  0.000000000E+00  1.886337139E-03  3.506392495E+01  5.942599823E+02  7.092413003E-01 
        42  2.917015337E-03 -1.650000026E-03  0.000000000E+00  1.886337223E-03  3.510475989E+01  5.942600089E+02  7.092413320E-01 
        43  3.060138752E-03 -1.649999982E-03  0.000000000E+00  1.886337174E-03  3.511315044E+01  5.942599934E+02  7.092413135E-01 
        44  3.122627803E-03 -1.650000012E-03  0.000000000E+00  1.886337209E-03  3.511757075E+01  5.942600044E+02  7.092413267E-01 
        45  3.948750735E-03 -1.649999946E-03  0.000000000E+00  1.886337139E-03  3.518504328E+01  5.942599823E+02  7.092413003E-01 
        46  4.233552192E-03 -1.650000005E-03  0.000000000E+00  1.886337195E-03  3.521013487E+01  5.942600000E+02  7.092413214E-01 
        47  4.833507872E-03 -1.649999945E-03  0.000000000E+00  1.886337139E-03  3.527486402E+01  5.942599823E+02  7.092413003E-01 
        48  5.160210487E-03 -1.649999946E-03  0.000000000E+00  1.886337139E-03  3.531479099E+01  5.942599823E+02  7.092413003E-01 
        49  5.783248106E-03 -1.650000052E-03  0.000000000E+00  1.886337251E-03  3.540506931E+01  5.942600177E+02  7.092413426E-01 
        50  6.035984549E-03 -1.649999976E-03  0.000000000E+00  1.886337167E-03  3.544380724E+01  5.942599911E+02  7.092413108E-01 
        51  6.237400109E-03 -1.650000022E-03  0.000000000E+00  1.886337223E-03  3.547917517E+01  5.942600089E+02  7.092413320E-01 
        52  6.881112835E-03 -1.650000056E-03  0.000000000E+00  1.886337251E-03  3.559754086E+01  5.942600177E+02  7.092413426E-01 
        53  7.573470319E-03 -1.649999997E-03  0.000000000E+00  1.886337195E-03  3.575458486E+01  5.942600000E+02  7.092413214E-01 
        54  7.730792309E-03 -1.650000003E-03  0.000000000E+00  1.886337195E-03  3.579151599E+01  5.942600000E+02  7.092413214E-01 
        55  8.090815089E-03 -1.650000001E-03  0.000000000E+00  1.886337195E-03  3.589912853E+01  5.942600000E+02  7.092413214E-01 
        56  8.598449542E-03 -1.650000003E-03  0.000000000E+00  1.886337195E-03  3.605456232E+01  5.942600000E+02  7.092413214E-01 
        57  8.805739513E-03 -1.650000003E-03  0.000000000E+00  1.886337195E-03  3.613769061E+01  5.942600000E+02  7.092413214E-01 
        58  9.485623847E-03 -1.649999997E-03  0.000000000E+00  1.886337195E-03  3.642086394E+01  5.942600000E+02  7.092413214E-01 
        59  9.996717122E-03 -1.650000053E-03  0.000000000E+00  1.886337251E-03  3.671689351E+01  5.942600177E+02  7.092413426E-01 
        60  1.038796781E-02 -1.650000000E-03  0.000000000E+00  1.886337195E-03  3.695358949E+01  5.942600000E+02  7.092413214E-01 
        61  1.110225324E-02 -1.650000050E-03  0.000000000E+00  1.886337251E-03  3.742300410E+01  5.942600177E+02  7.092413426E-01 
        62  1.129715473E-02 -1.650000051E-03  0.000000000E+00  1.886337251E-03  3.755379688E+01  5.942600177E+02  7.092413426E-01 
        63  1.153289457E-02 -1.649999949E-03  0.000000000E+00  1.886337139E-03  3.797274963E+01  5.942599823E+02  7.092413003E-01 
        64  1.172932302E-02 -1.649999996E-03  0.000000000E+00  1.886337195E-03  3.825405176E+01  5.942600000E+02  7.092413214E-01 
        65  1.189299876E-02 -1.650000052E-03  0.000000000E+00  1.886337251E-03  3.852586674E+01  5.942600177E+02  7.092413426E-01 
        66  1.202938442E-02 -1.649999949E-03  0.000000000E+00  1.886337139E-03  3.878541229E+01  5.942599823E+02  7.092413003E-01 
        67  1.214303390E-02 -1.650000044E-03  0.000000000E+00  1.886337251E-03  3.902096925E+01  5.942600177E+02  7.092413426E-01 
        68  1.223773642E-02 -1.650000012E-03  0.000000000E+00  1.886337195E-03  3.922489587E+01  5.942600000E+02  7.092413214E-01 
        69  1.231665286E-02 -1.650000046E-03  0.000000000E+00  1.886337251E-03  3.938213385E+01  5.942600177E+02  7.092413426E-01 
        70  1.238241385E-02 -1.649999998E-03  0.000000000E+00  3.944985093E-03  3.944457761E+01  5.942600154E+02  0.000000000E+00 
        71  1.110245300E-02 -1.649999996E-03  9.860657205E-04  1.868217463E-03  3.713899244E+01  5.942599999E+02  7.106831464E-01 
        72  1.129741118E-02 -1.649999994E-03  9.860237298E-04  1.867711681E-03  3.726186720E+01  5.942599999E+02  7.108431834E-01 
        73  1.038815708E-02 -1.649999987E-03  9.861987235E-04  1.870000784E-03  3.670222956E+01  5.942600000E+02  7.101212596E-01 
        74  8.805574705E-03 -1.650000021E-03  9.864727040E-04  1.870035373E-03  3.603451349E+01  5.942600088E+02  7.095990537E-01 
        75  9.485717905E-03 -1.650000014E-03  9.863583903E-04  1.870083702E-03  3.627827607E+01  5.942600000E+02  7.097375247E-01 
        76  9.996766092E-03 -1.649999943E-03  9.862710097E-04  1.870038290E-03  3.651547142E+01  5.942599823E+02  7.099516207E-01 
        77  7.730630904E-03 -1.650000039E-03  9.866502961E-04  1.869987275E-03  3.572605515E+01  5.942600133E+02  7.094667666E-01 
        78  8.091212126E-03 -1.649999999E-03  9.865892570E-04  1.870001235E-03  3.582316108E+01  5.942600000E+02  7.095041616E-01 
        79  8.598423723E-03 -1.649999983E-03  9.865066297E-04  1.870021377E-03  3.596298852E+01  5.942599911E+02  7.095580920E-01 
        80  1.153309208E-02 -1.650000032E-03  9.865404178E-04  1.864906055E-03  3.744720976E+01  5.942600088E+02  7.111513959E-01 
        81  7.573036225E-03 -1.650000030E-03  9.866765862E-04  1.869983801E-03  3.569166335E+01  5.942600088E+02  7.094570783E-01 
        82  5.783215100E-03 -1.650000004E-03  9.869826635E-04  1.869954904E-03  3.536435330E+01  5.942600000E+02  7.093768421E-01 
        83  6.035506259E-03 -1.649999949E-03  9.869375075E-04  1.869957376E-03  3.539956817E+01  5.942599823E+02  7.093830354E-01 
        84  6.236595952E-03 -1.650000002E-03  9.869024133E-04  1.869960211E-03  3.543339259E+01  5.942600000E+02  7.093906062E-01 
        85  6.880806203E-03 -1.649999944E-03  9.867931445E-04  1.869968942E-03  3.554542550E+01  5.942599823E+02  7.094150692E-01 
        86  1.172947215E-02 -1.650000029E-03  9.869723181E-04  1.859874095E-03  3.762256956E+01  5.942600088E+02  7.114593642E-01 
        87  4.832561986E-03 -1.649999941E-03  9.871570102E-04  1.869946610E-03  3.524203645E+01  5.942599823E+02  7.093563828E-01 
        88  5.159606270E-03 -1.650000004E-03  9.870976822E-04  1.869949068E-03  3.528083263E+01  5.942600000E+02  7.093623803E-01 
        89  3.947734035E-03 -1.649999955E-03  9.873277149E-04  1.869940643E-03  3.515345175E+01  5.942599823E+02  7.093435397E-01 
        90  4.232942892E-03 -1.649999946E-03  9.872707921E-04  1.869942418E-03  3.517842677E+01  5.942599823E+02  7.093467900E-01 
        91  1.189310817E-02 -1.649999954E-03  9.873330752E-04  1.851045939E-03  3.778817424E+01  5.942599822E+02  7.117469804E-01 
        92  2.914795121E-03 -1.649999999E-03  9.875323253E-04  1.869934876E-03  3.507703953E+01  5.942600000E+02  7.093339720E-01 
        93  3.058937451E-03 -1.650000039E-03  9.875036176E-04  1.869935636E-03  3.508520372E+01  5.942600133E+02  7.093348880E-01 
        94  3.121859929E-03 -1.649999985E-03  9.874906111E-04  1.869935923E-03  3.508939360E+01  5.942599956E+02  7.093353578E-01 
        95  1.285714191E-03 -1.649999950E-03  9.878538017E-04  1.869927267E-03  3.500592650E+01  5.942599823E+02  7.093258693E-01 
        96  1.816924899E-03 -1.650000049E-03  9.877480907E-04  1.869929674E-03  3.502287924E+01  5.942600177E+02  7.093279774E-01 
        97  2.170191834E-03 -1.650000044E-03  9.876810309E-04  1.869931241E-03  3.503768478E+01  5.942600177E+02  7.093296347E-01 
        98  1.202946298E-02 -1.649999953E-03  9.876343321E-04  1.834797468E-03  3.794033176E+01  5.942599822E+02  7.119564926E-01 
        99  1.214308635E-02 -1.649999988E-03  9.878858045E-04  1.810083645E-03  3.806964384E+01  5.942600000E+02  7.116287570E-01 
       100 -3.542577826E-04 -1.650000007E-03  9.881497301E-04  1.869921456E-03  3.498790757E+01  5.942600000E+02  7.093236959E-01 
       101  2.031021205E-04 -1.649999952E-03  9.880507533E-04  1.869923211E-03  3.498744478E+01  5.942599823E+02  7.093237503E-01 
       102  4.512136878E-04 -1.649999952E-03  9.880065915E-04  1.869924049E-03  3.498828919E+01  5.942599823E+02  7.093236703E-01 
       103  5.803136392E-04 -1.649999997E-03  9.879823968E-04  1.869924610E-03  3.499030630E+01  5.942600000E+02  7.093242130E-01 
       104  1.223776813E-02 -1.650000009E-03  9.880956075E-04  2.119204798E-03  3.817235236E+01  5.942600008E+02  7.049008219E-01 
       105 -1.968786396E-03 -1.649999951E-03  9.883890366E-04  1.869917665E-03  3.502459262E+01  5.942599823E+02  7.093289264E-01 
       106 -1.652977683E-03 -1.649999996E-03  9.883474365E-04  1.869918275E-03  3.501351771E+01  5.942600000E+02  7.093275222E-01 
       107 -1.155706233E-03 -1.649999999E-03  9.882811823E-04  1.869919260E-03  3.499982924E+01  5.942600000E+02  7.093255131E-01 
       108 -7.328599352E-04 -1.649999953E-03  9.882105507E-04  1.869920354E-03  3.499233696E+01  5.942599823E+02  7.093243408E-01 
       109  1.231666688E-02 -1.649999993E-03  9.882706246E-04  6.494699034E-03  3.823841728E+01  5.942600058E+02  6.572476624E-01 
       110 -1.238224737E-02 -1.650000051E-03  9.884166253E-04  7.556250063E-03  3.825289874E+01  5.942600557E+02  0.000000000E+00 
       111 -1.231697450E-02 -1.649999999E-03  9.884940960E-04  6.568027624E-03  3.824085612E+01  5.942600056E+02  6.590121323E-01 
       112 -2.327584992E-03 -1.649999952E-03  9.884358288E-04  1.869917155E-03  3.504138736E+01  5.942599823E+02  7.093309590E-01 
       113  1.238241434E-02 -1.650000051E-03  9.884166253E-04  7.488374736E-03  3.824868267E+01  5.942600557E+02  0.000000000E+00 
       114 -1.223864467E-02 -1.650000051E-03  9.885870638E-04  2.130744085E-03  3.817249572E+01  5.942600185E+02  7.049380321E-01 
       115 -1.214464338E-02 -1.649999994E-03  9.886984689E-04  1.806486121E-03  3.806893710E+01  5.942600000E+02  7.114523067E-01 
       116 -4.517199587E-03 -1.649999963E-03  9.887236864E-04  1.869916288E-03  3.520114767E+01  5.942599867E+02  7.093518686E-01 
       117 -4.414670316E-03 -1.650000033E-03  9.887104562E-04  1.869916273E-03  3.519113095E+01  5.942600133E+02  7.093504058E-01 
       118 -3.651595001E-03 -1.650000048E-03  9.886098026E-04  1.869916154E-03  3.512551881E+01  5.942600177E+02  7.093413202E-01 
       119 -3.094823677E-03 -1.650000049E-03  9.885372614E-04  1.869916383E-03  3.508474198E+01  5.942600177E+02  7.093361766E-01 
       120 -2.793029229E-03 -1.649999951E-03  9.884973581E-04  1.869916552E-03  3.506582617E+01  5.942599823E+02  7.093338789E-01 
       121 -1.203183536E-02 -1.650000008E-03  9.888320552E-04  1.832042304E-03  3.793959648E+01  5.942599999E+02  7.117913927E-01 
       122 -5.373331867E-03 -1.650000002E-03  9.888373881E-04  1.869918148E-03  3.530152255E+01  5.942600000E+02  7.093680264E-01 
       123 -4.706021831E-03 -1.649999978E-03  9.887486688E-04  1.869916695E-03  3.522259529E+01  5.942599911E+02  7.093553728E-01 
       124 -1.189645587E-02 -1.650000052E-03  9.889921867E-04  1.849491318E-03  3.778757411E+01  5.942600176E+02  7.116099652E-01 
       125 -5.769750150E-03 -1.650000058E-03  9.888914969E-04  1.869919845E-03  3.535657776E+01  5.942600177E+02  7.093781366E-01 
       126 -7.038392819E-03 -1.649999978E-03  9.890637268E-04  1.869929687E-03  3.556976034E+01  5.942599911E+02  7.094250853E-01 
       127 -6.777981764E-03 -1.650000004E-03  9.890279205E-04  1.869927374E-03  3.552269831E+01  5.942600000E+02  7.094143775E-01 
       128 -6.208507374E-03 -1.649999986E-03  9.889500532E-04  1.869922207E-03  3.542247453E+01  5.942600000E+02  7.093909124E-01 
       129 -1.173398426E-02 -1.649999973E-03  9.891839625E-04  1.858914375E-03  3.762183215E+01  5.942599911E+02  7.113500018E-01 
       130 -7.317166953E-03 -1.650000004E-03  9.891033433E-04  1.869934494E-03  3.563059846E+01  5.942600000E+02  7.094427352E-01 
       131 -8.713682192E-03 -1.650000053E-03  9.893002256E-04  1.869976229E-03  3.599380487E+01  5.942600177E+02  7.095747373E-01 
       132 -8.332633425E-03 -1.649999946E-03  9.892454469E-04  1.869962067E-03  3.588514454E+01  5.942599823E+02  7.095319100E-01 
       133 -7.874710432E-03 -1.649999955E-03  9.891805000E-04  1.869945337E-03  3.575923829E+01  5.942599823E+02  7.094813473E-01 
       134 -1.153899587E-02 -1.649999945E-03  9.894136741E-04  1.864275876E-03  3.744552245E+01  5.942599822E+02  7.110688965E-01 
       135 -9.733691370E-03 -1.650000000E-03  9.894490791E-04  1.869988197E-03  3.638012144E+01  5.942600000E+02  7.098248316E-01 
       136 -9.556210586E-03 -1.650000046E-03  9.894235574E-04  1.870023115E-03  3.629628194E+01  5.942600177E+02  7.097498770E-01 
       137 -9.266405885E-03 -1.650000050E-03  9.893819229E-04  1.870006583E-03  3.619009262E+01  5.942600177E+02  7.096879165E-01 
       138 -1.041736222E-02 -1.649999955E-03  9.895527119E-04  1.869862353E-03  3.670972598E+01  5.942599823E+02  7.101149203E-01 
       139 -1.130497527E-02 -1.649999952E-03  9.896886455E-04  1.867285557E-03  3.725835302E+01  5.942599822E+02  7.107849932E-01 
       140 -1.104863784E-02 -1.650000007E-03  9.896471749E-04  1.868035377E-03  3.709724035E+01  5.942599999E+02  7.105886776E-01 
       141  1.110265300E-02 -1.649999997E-03  1.972140752E-03  1.854722090E-03  3.643612591E+01  5.942600000E+02  7.119952071E-01 
       142  1.129766783E-02 -1.649999997E-03  1.972047450E-03  1.853431021E-03  3.649359945E+01  5.942600000E+02  7.122625970E-01 
       143  1.038834619E-02 -1.649999990E-03  1.972439484E-03  1.859280358E-03  3.622903999E+01  5.942600000E+02  7.110527986E-01 
       144  9.996815845E-03 -1.649999998E-03  1.972603110E-03  1.859503384E-03  3.611809874E+01  5.942600000E+02  7.107440465E-01 
       145  9.485811853E-03 -1.649999993E-03  1.972800993E-03  1.859775671E-03  3.597716971E+01  5.942600000E+02  7.103535513E-01 
       146  8.598398070E-03 -1.649999998E-03  1.973137196E-03  1.859704205E-03  3.575450137E+01  5.942600000E+02  7.099883515E-01 
       147  8.805409659E-03 -1.650000022E-03  1.973060752E-03  1.859719891E-03  3.580489408E+01  5.942600088E+02  7.100715061E-01 
       148  1.153328860E-02 -1.649999970E-03  1.973080771E-03  1.847184417E-03  3.655424957E+01  5.942599911E+02  7.127315056E-01 
       149  8.091608969E-03 -1.650000003E-03  1.973322042E-03  1.859670065E-03  3.564576478E+01  5.942600000E+02  7.098710376E-01 
       150  7.572601876E-03 -1.650000025E-03  1.973515861E-03  1.859640099E-03  3.554156971E+01  5.942600088E+02  7.097675252E-01 
       151  7.730469083E-03 -1.650000002E-03  1.973458047E-03  1.859646292E-03  3.557004666E+01  5.942600000E+02  7.097895132E-01 
