nodenumber     x-coordinate     y-coordinate     z-coordinate turb-kinetic-energy         pressure      temperature velocity-magnitude 
         1 -1.238224696E-02 -1.650000007E-03  0.000000000E+00  4.366480768E-03  4.239495649E+01  5.942600172E+02  0.000000000E+00 
         2 -1.231646687E-02 -1.649999949E-03  0.000000000E+00  2.100146294E-03  4.232943782E+01  5.942599823E+02  7.483575315E-01 
         3 -1.223752875E-02 -1.650000008E-03  0.000000000E+00  2.100146356E-03  4.216522045E+01  5.942600000E+02  7.483575538E-01 
         4 -1.214279805E-02 -1.649999951E-03  0.000000000E+00  2.100146294E-03  4.195214953E+01  5.942599823E+02  7.483575315E-01 
         5 -1.202911553E-02 -1.649999951E-03  0.000000000E+00  2.100146294E-03  4.170562033E+01  5.942599823E+02  7.483575315E-01 
         6 -1.189268779E-02 -1.650000001E-03  0.000000000E+00  2.100146356E-03  4.143325002E+01  5.942600000E+02  7.483575538E-01 
         7 -1.172896070E-02 -1.650000028E-03  0.000000000E+00  2.100146388E-03  4.114641510E+01  5.942600089E+02  7.483575650E-01 
         8 -1.153246726E-02 -1.649999968E-03  0.000000000E+00  2.100146325E-03  4.084801951E+01  5.942599911E+02  7.483575427E-01 
         9 -1.129664480E-02 -1.649999999E-03  0.000000000E+00  2.100146356E-03  4.039971556E+01  5.942600000E+02  7.483575538E-01 
        10 -1.104180182E-02 -1.649999952E-03  0.000000000E+00  2.100146294E-03  4.021425548E+01  5.942599823E+02  7.483575315E-01 
        11 -1.040965475E-02 -1.650000037E-03  0.000000000E+00  2.100146419E-03  3.976487768E+01  5.942600177E+02  7.483575761E-01 
        12 -9.727797567E-03 -1.649999974E-03  0.000000000E+00  2.100146325E-03  3.931988632E+01  5.942599911E+02  7.483575427E-01 
        13 -9.549135039E-03 -1.650000016E-03  0.000000000E+00  2.100146388E-03  3.920479395E+01  5.942600089E+02  7.483575650E-01 
        14 -9.257402967E-03 -1.649999996E-03  0.000000000E+00  2.100146356E-03  3.907072852E+01  5.942600000E+02  7.483575538E-01 
        15 -8.707201624E-03 -1.650000004E-03  0.000000000E+00  2.100146356E-03  3.882433234E+01  5.942600000E+02  7.483575538E-01 
        16 -8.327874969E-03 -1.650000002E-03  0.000000000E+00  2.100146356E-03  3.869151155E+01  5.942600000E+02  7.483575538E-01 
        17 -7.868819436E-03 -1.650000009E-03  0.000000000E+00  2.100146356E-03  3.853555503E+01  5.942600000E+02  7.483575538E-01 
        18 -7.309914944E-03 -1.650000005E-03  0.000000000E+00  2.100146356E-03  3.838211861E+01  5.942600000E+02  7.483575538E-01 
        19 -7.033056079E-03 -1.649999952E-03  0.000000000E+00  2.100146294E-03  3.831064050E+01  5.942599823E+02  7.483575315E-01 
        20 -6.774404682E-03 -1.650000049E-03  0.000000000E+00  2.100146419E-03  3.825696560E+01  5.942600177E+02  7.483575761E-01 
        21 -6.203718579E-03 -1.649999993E-03  0.000000000E+00  2.100146356E-03  3.814272249E+01  5.942600000E+02  7.483575538E-01 
        22 -5.764059055E-03 -1.650000057E-03  0.000000000E+00  2.100146419E-03  3.806638919E+01  5.942600177E+02  7.483575761E-01 
        23 -5.369046210E-03 -1.650000008E-03  0.000000000E+00  2.100146356E-03  3.800372647E+01  5.942600000E+02  7.483575538E-01 
        24 -4.703991919E-03 -1.649999998E-03  0.000000000E+00  2.100146356E-03  3.791435840E+01  5.942600000E+02  7.483575538E-01 
        25 -4.513416810E-03 -1.649999963E-03  0.000000000E+00  2.100146309E-03  3.788968816E+01  5.942599867E+02  7.483575371E-01 
        26 -4.409949101E-03 -1.650000002E-03  0.000000000E+00  2.100146356E-03  3.787829923E+01  5.942600000E+02  7.483575538E-01 
        27 -3.648226494E-03 -1.649999989E-03  0.000000000E+00  2.100146356E-03  3.780446472E+01  5.942600000E+02  7.483575538E-01 
        28 -3.090814824E-03 -1.649999990E-03  0.000000000E+00  2.100146356E-03  3.775796131E+01  5.942600000E+02  7.483575538E-01 
        29 -2.790049428E-03 -1.649999975E-03  0.000000000E+00  2.100146325E-03  3.773672197E+01  5.942599911E+02  7.483575427E-01 
        30 -2.326109559E-03 -1.650000046E-03  0.000000000E+00  2.100146419E-03  3.770978884E+01  5.942600177E+02  7.483575761E-01 
        31 -1.966101120E-03 -1.650000005E-03  0.000000000E+00  2.100146356E-03  3.769112948E+01  5.942600000E+02  7.483575538E-01 
        32 -1.649288649E-03 -1.650000004E-03  0.000000000E+00  2.100146356E-03  3.767912202E+01  5.942600000E+02  7.483575538E-01 
        33 -1.153324779E-03 -1.650000049E-03  0.000000000E+00  2.100146419E-03  3.766473882E+01  5.942600177E+02  7.483575761E-01 
        34 -7.314993435E-04 -1.649999992E-03  0.000000000E+00  2.100146356E-03  3.765661573E+01  5.942600000E+02  7.483575538E-01 
        35 -3.521276869E-04 -1.650000043E-03  0.000000000E+00  2.100146419E-03  3.765200094E+01  5.942600177E+02  7.483575761E-01 
        36  2.062356178E-04 -1.650000004E-03  0.000000000E+00  2.100146356E-03  3.765151290E+01  5.942600000E+02  7.483575538E-01 
        37  4.531226353E-04 -1.649999970E-03  0.000000000E+00  2.100146325E-03  3.765258950E+01  5.942599911E+02  7.483575427E-01 
        38  5.816147412E-04 -1.650000031E-03  0.000000000E+00  2.100146388E-03  3.765483674E+01  5.942600089E+02  7.483575650E-01 
        39  1.287381078E-03 -1.649999940E-03  0.000000000E+00  2.100146294E-03  3.767299069E+01  5.942599823E+02  7.483575315E-01 
        40  1.817906072E-03 -1.650000045E-03  0.000000000E+00  2.100146419E-03  3.769212278E+01  5.942600177E+02  7.483575761E-01 
        41  2.171618469E-03 -1.649999958E-03  0.000000000E+00  2.100146294E-03  3.770883275E+01  5.942599823E+02  7.483575315E-01 
        42  2.917015337E-03 -1.650000026E-03  0.000000000E+00  2.100146388E-03  3.775357201E+01  5.942600089E+02  7.483575650E-01 
        43  3.060138752E-03 -1.649999982E-03  0.000000000E+00  2.100146333E-03  3.776275824E+01  5.942599934E+02  7.483575455E-01 
        44  3.122627803E-03 -1.650000012E-03  0.000000000E+00  2.100146372E-03  3.776759099E+01  5.942600044E+02  7.483575594E-01 
        45  3.948750735E-03 -1.649999946E-03  0.000000000E+00  2.100146294E-03  3.784130807E+01  5.942599823E+02  7.483575315E-01 
        46  4.233552192E-03 -1.650000005E-03  0.000000000E+00  2.100146356E-03  3.786870810E+01  5.942600000E+02  7.483575538E-01 
        47  4.833507872E-03 -1.649999945E-03  0.000000000E+00  2.100146294E-03  3.793936936E+01  5.942599823E+02  7.483575315E-01 
        48  5.160210487E-03 -1.649999946E-03  0.000000000E+00  2.100146294E-03  3.798293707E+01  5.942599823E+02  7.483575315E-01 
        49  5.783248106E-03 -1.650000052E-03  0.000000000E+00  2.100146419E-03  3.808148595E+01  5.942600177E+02  7.483575761E-01 
        50  6.035984549E-03 -1.649999976E-03  0.000000000E+00  2.100146325E-03  3.812377087E+01  5.942599911E+02  7.483575427E-01 
        51  6.237400109E-03 -1.650000022E-03  0.000000000E+00  2.100146388E-03  3.816239521E+01  5.942600089E+02  7.483575650E-01 
        52  6.881112835E-03 -1.650000056E-03  0.000000000E+00  2.100146419E-03  3.829163224E+01  5.942600177E+02  7.483575761E-01 
        53  7.573470319E-03 -1.649999997E-03  0.000000000E+00  2.100146356E-03  3.846321747E+01  5.942600000E+02  7.483575538E-01 
        54  7.730792309E-03 -1.650000003E-03  0.000000000E+00  2.100146356E-03  3.850356274E+01  5.942600000E+02  7.483575538E-01 
        55  8.090815089E-03 -1.650000001E-03  0.000000000E+00  2.100146356E-03  3.862121170E+01  5.942600000E+02  7.483575538E-01 
        56  8.598449542E-03 -1.650000003E-03  0.000000000E+00  2.100146356E-03  3.879113679E+01  5.942600000E+02  7.483575538E-01 
        57  8.805739513E-03 -1.650000003E-03  0.000000000E+00  2.100146356E-03  3.888207319E+01  5.942600000E+02  7.483575538E-01 
        58  9.485623847E-03 -1.649999997E-03  0.000000000E+00  2.100146356E-03  3.919182660E+01  5.942600000E+02  7.483575538E-01 
        59  9.996717122E-03 -1.650000053E-03  0.000000000E+00  2.100146419E-03  3.951577304E+01  5.942600177E+02  7.483575761E-01 
        60  1.038796781E-02 -1.650000000E-03  0.000000000E+00  2.100146356E-03  3.977478536E+01  5.942600000E+02  7.483575538E-01 
        61  1.110225324E-02 -1.650000050E-03  0.000000000E+00  2.100146419E-03  4.028851329E+01  5.942600177E+02  7.483575761E-01 
        62  1.129715473E-02 -1.650000051E-03  0.000000000E+00  2.100146419E-03  4.043165012E+01  5.942600177E+02  7.483575761E-01 
        63  1.153289457E-02 -1.649999949E-03  0.000000000E+00  2.100146294E-03  4.089010733E+01  5.942599823E+02  7.483575315E-01 
        64  1.172932302E-02 -1.649999996E-03  0.000000000E+00  2.100146356E-03  4.119785608E+01  5.942600000E+02  7.483575538E-01 
        65  1.189299876E-02 -1.650000052E-03  0.000000000E+00  2.100146419E-03  4.149517228E+01  5.942600177E+02  7.483575761E-01 
        66  1.202938442E-02 -1.649999949E-03  0.000000000E+00  2.100146294E-03  4.177912528E+01  5.942599823E+02  7.483575315E-01 
        67  1.214303390E-02 -1.650000044E-03  0.000000000E+00  2.100146419E-03  4.203707553E+01  5.942600177E+02  7.483575761E-01 
        68  1.223773642E-02 -1.650000012E-03  0.000000000E+00  2.100146356E-03  4.226062013E+01  5.942600000E+02  7.483575538E-01 
        69  1.231665286E-02 -1.650000046E-03  0.000000000E+00  2.100146419E-03  4.243288725E+01  5.942600177E+02  7.483575761E-01 
        70  1.238241385E-02 -1.649999998E-03  0.000000000E+00  4.338690357E-03  4.250121019E+01  5.942600172E+02  0.000000000E+00 
        71  1.110245300E-02 -1.649999996E-03  9.860657205E-04  2.079963269E-03  3.997773200E+01  5.942599999E+02  7.498524947E-01 
        72  1.129741118E-02 -1.649999994E-03  9.860237298E-04  2.079401560E-03  4.011222388E+01  5.942599999E+02  7.500183457E-01 
        73  1.038815708E-02 -1.649999987E-03  9.861987235E-04  2.081944065E-03  3.949966678E+01  5.942600000E+02  7.492702049E-01 
        74  8.805574705E-03 -1.650000021E-03  9.864727040E-04  2.081990730E-03  3.876911491E+01  5.942600088E+02  7.487287028E-01 
        75  9.485717905E-03 -1.650000014E-03  9.863583903E-04  2.082042327E-03  3.903571602E+01  5.942600000E+02  7.488723712E-01 
        76  9.996766092E-03 -1.649999943E-03  9.862710097E-04  2.081988475E-03  3.929529236E+01  5.942599823E+02  7.490943323E-01 
        77  7.730630904E-03 -1.650000039E-03  9.866502961E-04  2.081938991E-03  3.843194096E+01  5.942600133E+02  7.485913256E-01 
        78  8.091212126E-03 -1.649999999E-03  9.865892570E-04  2.081954057E-03  3.853806940E+01  5.942600000E+02  7.486301749E-01 
        79  8.598423723E-03 -1.649999983E-03  9.865066297E-04  2.081975791E-03  3.869088323E+01  5.942599911E+02  7.486862035E-01 
        80  1.153309208E-02 -1.650000032E-03  9.865404178E-04  2.076300531E-03  4.031506652E+01  5.942600088E+02  7.503376443E-01 
        81  7.573036225E-03 -1.650000030E-03  9.866765862E-04  2.081935230E-03  3.839438597E+01  5.942600088E+02  7.485812439E-01 
        82  5.783215100E-03 -1.650000004E-03  9.869826635E-04  2.081903908E-03  3.803706652E+01  5.942600000E+02  7.484976832E-01 
        83  6.035506259E-03 -1.649999949E-03  9.869375075E-04  2.081906594E-03  3.807548831E+01  5.942599823E+02  7.485041472E-01 
        84  6.236595952E-03 -1.650000002E-03  9.869024133E-04  2.081909670E-03  3.811241016E+01  5.942600000E+02  7.485120373E-01 
        85  6.880806203E-03 -1.649999944E-03  9.867931445E-04  2.081919139E-03  3.823467560E+01  5.942599823E+02  7.485375341E-01 
        86  1.172947215E-02 -1.650000029E-03  9.869723181E-04  2.070748555E-03  4.050691464E+01  5.942600088E+02  7.506566003E-01 
        87  4.832561986E-03 -1.649999941E-03  9.871570102E-04  2.081894878E-03  3.790362025E+01  5.942599823E+02  7.484763247E-01 
        88  5.159606270E-03 -1.650000004E-03  9.870976822E-04  2.081897559E-03  3.794593508E+01  5.942600000E+02  7.484825880E-01 
        89  3.947734035E-03 -1.649999955E-03  9.873277149E-04  2.081888361E-03  3.780694906E+01  5.942599823E+02  7.484629055E-01 
        90  4.232942892E-03 -1.649999946E-03  9.872707921E-04  2.081890302E-03  3.783421075E+01  5.942599823E+02  7.484663041E-01 
        91  1.189310817E-02 -1.649999954E-03  9.873330752E-04  2.061032270E-03  4.068808139E+01  5.942599822E+02  7.509544068E-01 
        92  2.914795121E-03 -1.649999999E-03  9.875323253E-04  2.081882040E-03  3.772347175E+01  5.942600000E+02  7.484529016E-01 
        93  3.058937451E-03 -1.650000039E-03  9.875036176E-04  2.081882877E-03  3.773240693E+01  5.942600133E+02  7.484538596E-01 
        94  3.121859929E-03 -1.649999985E-03  9.874906111E-04  2.081883191E-03  3.773698649E+01  5.942599956E+02  7.484543509E-01 
        95  1.285714191E-03 -1.649999950E-03  9.878538017E-04  2.081873647E-03  3.764541971E+01  5.942599823E+02  7.484444316E-01 
        96  1.816924899E-03 -1.650000049E-03  9.877480907E-04  2.081876311E-03  3.766410818E+01  5.942600177E+02  7.484466302E-01 
        97  2.170191834E-03 -1.650000044E-03  9.876810309E-04  2.081878040E-03  3.768036907E+01  5.942600177E+02  7.484483663E-01 
        98  1.202946298E-02 -1.649999953E-03  9.876343321E-04  2.043206934E-03  4.085461746E+01  5.942599822E+02  7.511718088E-01 
        99  1.214308635E-02 -1.649999988E-03  9.878858045E-04  2.015518843E-03  4.099628988E+01  5.942600000E+02  7.508410034E-01 
       100 -3.542577826E-04 -1.650000007E-03  9.881497301E-04  2.081867183E-03  3.762488012E+01  5.942600000E+02  7.484421543E-01 
       101  2.031021205E-04 -1.649999952E-03  9.880507533E-04  2.081869143E-03  3.762472669E+01  5.942599823E+02  7.484422137E-01 
       102  4.512136878E-04 -1.649999952E-03  9.880065915E-04  2.081870079E-03  3.762579746E+01  5.942599823E+02  7.484421506E-01 
       103  5.803136392E-04 -1.649999997E-03  9.879823968E-04  2.081870701E-03  3.762806156E+01  5.942600000E+02  7.484427016E-01 
       104  1.223776813E-02 -1.650000009E-03  9.880956075E-04  2.341099912E-03  4.110895147E+01  5.942600009E+02  7.439089852E-01 
       105 -1.968786396E-03 -1.649999951E-03  9.883890366E-04  2.081862894E-03  3.766356209E+01  5.942599823E+02  7.484476093E-01 
       106 -1.652977683E-03 -1.649999996E-03  9.883474365E-04  2.081863591E-03  3.765177104E+01  5.942600000E+02  7.484461313E-01 
       107 -1.155706233E-03 -1.649999999E-03  9.882811823E-04  2.081864713E-03  3.763727554E+01  5.942600000E+02  7.484440058E-01 
       108 -7.328599352E-04 -1.649999953E-03  9.882105507E-04  2.081865946E-03  3.762943266E+01  5.942599823E+02  7.484428134E-01 
       109  1.231666688E-02 -1.649999993E-03  9.882706246E-04  7.116833260E-03  4.118140131E+01  5.942600064E+02  6.943898530E-01 
       110 -1.238224737E-02 -1.650000051E-03  9.884166253E-04  8.275987518E-03  4.119027492E+01  5.942600599E+02  0.000000000E+00 
       111 -1.231697450E-02 -1.649999999E-03  9.884940960E-04  7.196515359E-03  4.117708988E+01  5.942600061E+02  6.962402148E-01 
       112 -2.327584992E-03 -1.649999952E-03  9.884358288E-04  2.081862301E-03  3.768151848E+01  5.942599823E+02  7.484497481E-01 
       113  1.238241434E-02 -1.650000051E-03  9.884166253E-04  8.202224637E-03  4.119265583E+01  5.942600600E+02  0.000000000E+00 
       114 -1.223864467E-02 -1.650000051E-03  9.885870638E-04  2.353228105E-03  4.110214173E+01  5.942600186E+02  7.439468427E-01 
       115 -1.214464338E-02 -1.649999994E-03  9.886984689E-04  2.011440462E-03  4.098847327E+01  5.942600000E+02  7.506566847E-01 
       116 -4.517199587E-03 -1.649999963E-03  9.887236864E-04  2.081861092E-03  3.785326385E+01  5.942599867E+02  7.484717562E-01 
       117 -4.414670316E-03 -1.650000033E-03  9.887104562E-04  2.081861090E-03  3.784246054E+01  5.942600133E+02  7.484702163E-01 
       118 -3.651595001E-03 -1.650000048E-03  9.886098026E-04  2.081861059E-03  3.777181329E+01  5.942600177E+02  7.484606513E-01 
       119 -3.094823677E-03 -1.650000049E-03  9.885372614E-04  2.081861376E-03  3.772797782E+01  5.942600177E+02  7.484552391E-01 
       120 -2.793029229E-03 -1.649999951E-03  9.884973581E-04  2.081861593E-03  3.770768532E+01  5.942599823E+02  7.484528223E-01 
       121 -1.203183536E-02 -1.650000008E-03  9.888320552E-04  2.040192032E-03  4.084684528E+01  5.942599999E+02  7.510016522E-01 
       122 -5.373331867E-03 -1.650000002E-03  9.888373881E-04  2.081862997E-03  3.796169468E+01  5.942600000E+02  7.484887732E-01 
       123 -4.706021831E-03 -1.649999978E-03  9.887486688E-04  2.081861509E-03  3.787643075E+01  5.942599911E+02  7.484754473E-01 
       124 -1.189645587E-02 -1.650000052E-03  9.889921867E-04  2.059329163E-03  4.068039706E+01  5.942600176E+02  7.508119973E-01 
       125 -5.769750150E-03 -1.650000058E-03  9.888914969E-04  2.081864791E-03  3.802128843E+01  5.942600177E+02  7.484994200E-01 
       126 -7.038392819E-03 -1.649999978E-03  9.890637268E-04  2.081875340E-03  3.825259760E+01  5.942599911E+02  7.485487371E-01 
       127 -6.777981764E-03 -1.650000004E-03  9.890279205E-04  2.081872854E-03  3.820150362E+01  5.942600000E+02  7.485374927E-01 
       128 -6.208507374E-03 -1.649999986E-03  9.889500532E-04  2.081867298E-03  3.809268026E+01  5.942600000E+02  7.485128602E-01 
       129 -1.173398426E-02 -1.649999973E-03  9.891839625E-04  2.069695595E-03  4.049902418E+01  5.942599911E+02  7.505417848E-01 
       130 -7.317166953E-03 -1.650000004E-03  9.891033433E-04  2.081880542E-03  3.831882589E+01  5.942600000E+02  7.485671975E-01 
       131 -8.713682192E-03 -1.650000053E-03  9.893002256E-04  2.081925659E-03  3.871502145E+01  5.942600177E+02  7.487047095E-01 
       132 -8.332633425E-03 -1.649999946E-03  9.892454469E-04  2.081910349E-03  3.859638758E+01  5.942599823E+02  7.486601495E-01 
       133 -7.874710432E-03 -1.649999955E-03  9.891805000E-04  2.081892275E-03  3.845892244E+01  5.942599823E+02  7.486075515E-01 
       134 -1.153899587E-02 -1.649999945E-03  9.894136741E-04  2.075608438E-03  4.030599432E+01  5.942599822E+02  7.502500758E-01 
       135 -9.733691370E-03 -1.650000000E-03  9.894490791E-04  2.081935449E-03  3.913798519E+01  5.942600000E+02  7.489635227E-01 
       136 -9.556210586E-03 -1.650000046E-03  9.894235574E-04  2.081975341E-03  3.904607870E+01  5.942600177E+02  7.488860812E-01 
       137 -9.266405885E-03 -1.650000050E-03  9.893819229E-04  2.081957832E-03  3.892985087E+01  5.942600177E+02  7.488219195E-01 
       138 -1.041736222E-02 -1.649999955E-03  9.895527119E-04  2.081791338E-03  3.949931663E+01  5.942599823E+02  7.492632349E-01 
       139 -1.130497527E-02 -1.649999952E-03  9.896886455E-04  2.078933078E-03  4.010091438E+01  5.942599822E+02  7.499559634E-01 
       140 -1.104863784E-02 -1.650000007E-03  9.896471749E-04  2.079764818E-03  3.992424128E+01  5.942599999E+02  7.497530135E-01 
       141  1.110265300E-02 -1.649999997E-03  1.972140752E-03  2.064951330E-03  3.920856525E+01  5.942600000E+02  7.512133070E-01 
       142  1.129766783E-02 -1.649999997E-03  1.972047450E-03  2.063520616E-03  3.927155294E+01  5.942600000E+02  7.514903972E-01 
       143  1.038834619E-02 -1.649999990E-03  1.972439484E-03  2.070002960E-03  3.898160440E+01  5.942600000E+02  7.502367183E-01 
       144  9.996815845E-03 -1.649999998E-03  1.972603110E-03  2.070253934E-03  3.886019042E+01  5.942600000E+02  7.499166042E-01 
       145  9.485811853E-03 -1.649999993E-03  1.972800993E-03  2.070560417E-03  3.870595065E+01  5.942600000E+02  7.495117360E-01 
       146  8.598398070E-03 -1.649999998E-03  1.973137196E-03  2.070485285E-03  3.846260520E+01  5.942600000E+02  7.491326764E-01 
       147  8.805409659E-03 -1.650000022E-03  1.973060752E-03  2.070501756E-03  3.851768141E+01  5.942600088E+02  7.492189874E-01 
       148  1.153328860E-02 -1.649999970E-03  1.973080771E-03  2.056617061E-03  3.933810615E+01  5.942599911E+02  7.519760912E-01 
       149  8.091608969E-03 -1.650000003E-03  1.973322042E-03  2.070448428E-03  3.834391670E+01  5.942600000E+02  7.490107130E-01 
       150  7.572601876E-03 -1.650000025E-03  1.973515861E-03  2.070416041E-03  3.823021310E+01  5.942600088E+02  7.489030596E-01 
       151  7.730469083E-03 -1.650000002E-03  1.973458047E-03  2.070422756E-03  3.826126435E+01  5.942600000E+02  7.489259576E-01 
