nodenumber     x-coordinate     y-coordinate     z-coordinate turb-kinetic-energy         pressure      temperature velocity-magnitude 
         1 -1.238224696E-02 -1.650000007E-03  0.000000000E+00  3.988731305E-03  3.949494688E+01  5.942600155E+02  0.000000000E+00 
         2 -1.231646687E-02 -1.649999949E-03  0.000000000E+00  1.896005579E-03  3.943477834E+01  5.942599823E+02  7.110565890E-01 
         3 -1.223752875E-02 -1.650000008E-03  0.000000000E+00  1.896005636E-03  3.928412372E+01  5.942600000E+02  7.110566102E-01 
         4 -1.214279805E-02 -1.649999951E-03  0.000000000E+00  1.896005579E-03  3.908881077E+01  5.942599823E+02  7.110565890E-01 
         5 -1.202911553E-02 -1.649999951E-03  0.000000000E+00  1.896005579E-03  3.886266787E+01  5.942599823E+02  7.110565890E-01 
         6 -1.189268779E-02 -1.650000001E-03  0.000000000E+00  1.896005636E-03  3.861255963E+01  5.942600000E+02  7.110566102E-01 
         7 -1.172896070E-02 -1.650000028E-03  0.000000000E+00  1.896005664E-03  3.834907748E+01  5.942600089E+02  7.110566208E-01 
         8 -1.153246726E-02 -1.649999968E-03  0.000000000E+00  1.896005608E-03  3.807501342E+01  5.942599911E+02  7.110565996E-01 
         9 -1.129664480E-02 -1.649999999E-03  0.000000000E+00  1.896005636E-03  3.766348615E+01  5.942600000E+02  7.110566102E-01 
        10 -1.104180182E-02 -1.649999952E-03  0.000000000E+00  1.896005579E-03  3.749334244E+01  5.942599823E+02  7.110565890E-01 
        11 -1.040965475E-02 -1.650000037E-03  0.000000000E+00  1.896005692E-03  3.708106696E+01  5.942600177E+02  7.110566314E-01 
        12 -9.727797567E-03 -1.649999974E-03  0.000000000E+00  1.896005608E-03  3.667296567E+01  5.942599911E+02  7.110565996E-01 
        13 -9.549135039E-03 -1.650000016E-03  0.000000000E+00  1.896005664E-03  3.656741049E+01  5.942600089E+02  7.110566208E-01 
        14 -9.257402967E-03 -1.649999996E-03  0.000000000E+00  1.896005636E-03  3.644439884E+01  5.942600000E+02  7.110566102E-01 
        15 -8.707201624E-03 -1.650000004E-03  0.000000000E+00  1.896005636E-03  3.621831020E+01  5.942600000E+02  7.110566102E-01 
        16 -8.327874969E-03 -1.650000002E-03  0.000000000E+00  1.896005636E-03  3.609625156E+01  5.942600000E+02  7.110566102E-01 
        17 -7.868819436E-03 -1.650000009E-03  0.000000000E+00  1.896005636E-03  3.595293239E+01  5.942600000E+02  7.110566102E-01 
        18 -7.309914944E-03 -1.650000005E-03  0.000000000E+00  1.896005636E-03  3.581164660E+01  5.942600000E+02  7.110566102E-01 
        19 -7.033056079E-03 -1.649999952E-03  0.000000000E+00  1.896005579E-03  3.574580617E+01  5.942599823E+02  7.110565890E-01 
        20 -6.774404682E-03 -1.650000049E-03  0.000000000E+00  1.896005692E-03  3.569624692E+01  5.942600177E+02  7.110566314E-01 
        21 -6.203718579E-03 -1.649999993E-03  0.000000000E+00  1.896005636E-03  3.559077676E+01  5.942600000E+02  7.110566102E-01 
        22 -5.764059055E-03 -1.650000057E-03  0.000000000E+00  1.896005692E-03  3.552015819E+01  5.942600177E+02  7.110566314E-01 
        23 -5.369046210E-03 -1.650000008E-03  0.000000000E+00  1.896005636E-03  3.546213808E+01  5.942600000E+02  7.110566102E-01 
        24 -4.703991919E-03 -1.649999998E-03  0.000000000E+00  1.896005636E-03  3.537922736E+01  5.942600000E+02  7.110566102E-01 
        25 -4.513416810E-03 -1.649999963E-03  0.000000000E+00  1.896005594E-03  3.535633819E+01  5.942599867E+02  7.110565943E-01 
        26 -4.409949101E-03 -1.650000002E-03  0.000000000E+00  1.896005636E-03  3.534575553E+01  5.942600000E+02  7.110566102E-01 
        27 -3.648226494E-03 -1.649999989E-03  0.000000000E+00  1.896005636E-03  3.527703631E+01  5.942600000E+02  7.110566102E-01 
        28 -3.090814824E-03 -1.649999990E-03  0.000000000E+00  1.896005636E-03  3.523368594E+01  5.942600000E+02  7.110566102E-01 
        29 -2.790049428E-03 -1.649999975E-03  0.000000000E+00  1.896005608E-03  3.521384586E+01  5.942599911E+02  7.110565996E-01 
        30 -2.326109559E-03 -1.650000046E-03  0.000000000E+00  1.896005692E-03  3.518863874E+01  5.942600177E+02  7.110566314E-01 
        31 -1.966101120E-03 -1.650000005E-03  0.000000000E+00  1.896005636E-03  3.517115149E+01  5.942600000E+02  7.110566102E-01 
        32 -1.649288649E-03 -1.650000004E-03  0.000000000E+00  1.896005636E-03  3.515985145E+01  5.942600000E+02  7.110566102E-01 
        33 -1.153324779E-03 -1.650000049E-03  0.000000000E+00  1.896005692E-03  3.514624165E+01  5.942600177E+02  7.110566314E-01 
        34 -7.314993435E-04 -1.649999992E-03  0.000000000E+00  1.896005636E-03  3.513847872E+01  5.942600000E+02  7.110566102E-01 
        35 -3.521276869E-04 -1.650000043E-03  0.000000000E+00  1.896005692E-03  3.513398973E+01  5.942600177E+02  7.110566314E-01 
        36  2.062356178E-04 -1.650000004E-03  0.000000000E+00  1.896005636E-03  3.513323764E+01  5.942600000E+02  7.110566102E-01 
        37  4.531226353E-04 -1.649999970E-03  0.000000000E+00  1.896005608E-03  3.513410207E+01  5.942599911E+02  7.110565996E-01 
        38  5.816147412E-04 -1.650000031E-03  0.000000000E+00  1.896005664E-03  3.513611360E+01  5.942600089E+02  7.110566208E-01 
        39  1.287381078E-03 -1.649999940E-03  0.000000000E+00  1.896005579E-03  3.515253758E+01  5.942599823E+02  7.110565890E-01 
        40  1.817906072E-03 -1.650000045E-03  0.000000000E+00  1.896005692E-03  3.516996210E+01  5.942600177E+02  7.110566314E-01 
        41  2.171618469E-03 -1.649999958E-03  0.000000000E+00  1.896005579E-03  3.518523674E+01  5.942599823E+02  7.110565890E-01 
        42  2.917015337E-03 -1.650000026E-03  0.000000000E+00  1.896005664E-03  3.522623936E+01  5.942600089E+02  7.110566208E-01 
        43  3.060138752E-03 -1.649999982E-03  0.000000000E+00  1.896005615E-03  3.523466412E+01  5.942599934E+02  7.110566023E-01 
        44  3.122627803E-03 -1.650000012E-03  0.000000000E+00  1.896005650E-03  3.523910215E+01  5.942600044E+02  7.110566155E-01 
        45  3.948750735E-03 -1.649999946E-03  0.000000000E+00  1.896005579E-03  3.530684311E+01  5.942599823E+02  7.110565890E-01 
        46  4.233552192E-03 -1.650000005E-03  0.000000000E+00  1.896005636E-03  3.533203387E+01  5.942600000E+02  7.110566102E-01 
        47  4.833507872E-03 -1.649999945E-03  0.000000000E+00  1.896005579E-03  3.539701813E+01  5.942599823E+02  7.110565890E-01 
        48  5.160210487E-03 -1.649999946E-03  0.000000000E+00  1.896005579E-03  3.543710193E+01  5.942599823E+02  7.110565890E-01 
        49  5.783248106E-03 -1.650000052E-03  0.000000000E+00  1.896005692E-03  3.552773707E+01  5.942600177E+02  7.110566314E-01 
        50  6.035984549E-03 -1.649999976E-03  0.000000000E+00  1.896005608E-03  3.556662799E+01  5.942599911E+02  7.110565996E-01 
        51  6.237400109E-03 -1.650000022E-03  0.000000000E+00  1.896005664E-03  3.560213703E+01  5.942600089E+02  7.110566208E-01 
        52  6.881112835E-03 -1.650000056E-03  0.000000000E+00  1.896005692E-03  3.572097441E+01  5.942600177E+02  7.110566314E-01 
        53  7.573470319E-03 -1.649999997E-03  0.000000000E+00  1.896005636E-03  3.587865404E+01  5.942600000E+02  7.110566102E-01 
        54  7.730792309E-03 -1.650000003E-03  0.000000000E+00  1.896005636E-03  3.591573458E+01  5.942600000E+02  7.110566102E-01 
        55  8.090815089E-03 -1.650000001E-03  0.000000000E+00  1.896005636E-03  3.602379063E+01  5.942600000E+02  7.110566102E-01 
        56  8.598449542E-03 -1.650000003E-03  0.000000000E+00  1.896005636E-03  3.617986413E+01  5.942600000E+02  7.110566102E-01 
        57  8.805739513E-03 -1.650000003E-03  0.000000000E+00  1.896005636E-03  3.626334059E+01  5.942600000E+02  7.110566102E-01 
        58  9.485623847E-03 -1.649999997E-03  0.000000000E+00  1.896005636E-03  3.654770037E+01  5.942600000E+02  7.110566102E-01 
        59  9.996717122E-03 -1.650000053E-03  0.000000000E+00  1.896005692E-03  3.684498797E+01  5.942600177E+02  7.110566314E-01 
        60  1.038796781E-02 -1.650000000E-03  0.000000000E+00  1.896005636E-03  3.708269013E+01  5.942600000E+02  7.110566102E-01 
        61  1.110225324E-02 -1.650000050E-03  0.000000000E+00  1.896005692E-03  3.755411422E+01  5.942600177E+02  7.110566314E-01 
        62  1.129715473E-02 -1.650000051E-03  0.000000000E+00  1.896005692E-03  3.768546651E+01  5.942600177E+02  7.110566314E-01 
        63  1.153289457E-02 -1.649999949E-03  0.000000000E+00  1.896005579E-03  3.810621449E+01  5.942599823E+02  7.110565890E-01 
        64  1.172932302E-02 -1.649999996E-03  0.000000000E+00  1.896005636E-03  3.838872060E+01  5.942600000E+02  7.110566102E-01 
        65  1.189299876E-02 -1.650000052E-03  0.000000000E+00  1.896005692E-03  3.866169715E+01  5.942600177E+02  7.110566314E-01 
        66  1.202938442E-02 -1.649999949E-03  0.000000000E+00  1.896005579E-03  3.892235476E+01  5.942599823E+02  7.110565890E-01 
        67  1.214303390E-02 -1.650000044E-03  0.000000000E+00  1.896005692E-03  3.915893174E+01  5.942600177E+02  7.110566314E-01 
        68  1.223773642E-02 -1.650000012E-03  0.000000000E+00  1.896005636E-03  3.936375162E+01  5.942600000E+02  7.110566102E-01 
        69  1.231665286E-02 -1.650000046E-03  0.000000000E+00  1.896005692E-03  3.952167418E+01  5.942600177E+02  7.110566314E-01 
        70  1.238241385E-02 -1.649999998E-03  0.000000000E+00  3.962880319E-03  3.958438594E+01  5.942600155E+02  0.000000000E+00 
        71  1.110245300E-02 -1.649999996E-03  9.860657205E-04  1.877792616E-03  3.726887846E+01  5.942599999E+02  7.125009208E-01 
        72  1.129741118E-02 -1.649999994E-03  9.860237298E-04  1.877284304E-03  3.739227865E+01  5.942599999E+02  7.126612302E-01 
        73  1.038815708E-02 -1.649999987E-03  9.861987235E-04  1.879584869E-03  3.683024678E+01  5.942600000E+02  7.119380801E-01 
        74  8.805574705E-03 -1.650000021E-03  9.864727040E-04  1.879619983E-03  3.615972029E+01  5.942600088E+02  7.114149619E-01 
        75  9.485717905E-03 -1.650000014E-03  9.863583903E-04  1.879668465E-03  3.640449738E+01  5.942600000E+02  7.115536808E-01 
        76  9.996766092E-03 -1.649999943E-03  9.862710097E-04  1.879622681E-03  3.664269727E+01  5.942599823E+02  7.117681478E-01 
        77  7.730630904E-03 -1.650000039E-03  9.866502961E-04  1.879571717E-03  3.584999775E+01  5.942600133E+02  7.112824290E-01 
        78  8.091212126E-03 -1.649999999E-03  9.865892570E-04  1.879585727E-03  3.594750043E+01  5.942600000E+02  7.113198939E-01 
        79  8.598423723E-03 -1.649999983E-03  9.865066297E-04  1.879605943E-03  3.608789794E+01  5.942599911E+02  7.113739262E-01 
        80  1.153309208E-02 -1.650000032E-03  9.865404178E-04  1.874465286E-03  3.757841620E+01  5.942600088E+02  7.129699595E-01 
        81  7.573036225E-03 -1.650000030E-03  9.866765862E-04  1.879568230E-03  3.581546817E+01  5.942600088E+02  7.112727217E-01 
        82  5.783215100E-03 -1.650000004E-03  9.869826635E-04  1.879539226E-03  3.548685885E+01  5.942600000E+02  7.111923246E-01 
        83  6.035506259E-03 -1.649999949E-03  9.869375075E-04  1.879541707E-03  3.552221153E+01  5.942599823E+02  7.111985307E-01 
        84  6.236595952E-03 -1.650000002E-03  9.869024133E-04  1.879544553E-03  3.555616949E+01  5.942600000E+02  7.112061171E-01 
        85  6.880806203E-03 -1.649999944E-03  9.867931445E-04  1.879553316E-03  3.566864445E+01  5.942599823E+02  7.112306299E-01 
        86  1.172947215E-02 -1.650000029E-03  9.869723181E-04  1.869409736E-03  3.775452644E+01  5.942600088E+02  7.132784400E-01 
        87  4.832561986E-03 -1.649999941E-03  9.871570102E-04  1.879530900E-03  3.536406342E+01  5.942599823E+02  7.111718234E-01 
        88  5.159606270E-03 -1.650000004E-03  9.870976822E-04  1.879533368E-03  3.540301088E+01  5.942600000E+02  7.111778330E-01 
        89  3.947734035E-03 -1.649999955E-03  9.873277149E-04  1.879524909E-03  3.527513171E+01  5.942599823E+02  7.111589543E-01 
        90  4.232942892E-03 -1.649999946E-03  9.872707921E-04  1.879526691E-03  3.530020488E+01  5.942599823E+02  7.111622111E-01 
        91  1.189310817E-02 -1.649999954E-03  9.873330752E-04  1.860541257E-03  3.792083999E+01  5.942599822E+02  7.135665307E-01 
        92  2.914795121E-03 -1.649999999E-03  9.875323253E-04  1.879519119E-03  3.519841602E+01  5.942600000E+02  7.111493679E-01 
        93  3.058937451E-03 -1.650000039E-03  9.875036176E-04  1.879519882E-03  3.520661337E+01  5.942600133E+02  7.111502856E-01 
        94  3.121859929E-03 -1.649999985E-03  9.874906111E-04  1.879520170E-03  3.521081998E+01  5.942599956E+02  7.111507563E-01 
        95  1.285714191E-03 -1.649999950E-03  9.878538017E-04  1.879511475E-03  3.512700481E+01  5.942599823E+02  7.111412505E-01 
        96  1.816924899E-03 -1.650000049E-03  9.877480907E-04  1.879513893E-03  3.514403206E+01  5.942600177E+02  7.111433619E-01 
        97  2.170191834E-03 -1.650000044E-03  9.876810309E-04  1.879515467E-03  3.515890026E+01  5.942600177E+02  7.111450224E-01 
        98  1.202946298E-02 -1.649999953E-03  9.876343321E-04  1.844221097E-03  3.807365289E+01  5.942599822E+02  7.137764101E-01 
        99  1.214308635E-02 -1.649999988E-03  9.878858045E-04  1.819371534E-03  3.820352839E+01  5.942600000E+02  7.134485454E-01 
       100 -3.542577826E-04 -1.650000007E-03  9.881497301E-04  1.879505634E-03  3.510887855E+01  5.942600000E+02  7.111390732E-01 
       101  2.031021205E-04 -1.649999952E-03  9.880507533E-04  1.879507399E-03  3.510842847E+01  5.942599823E+02  7.111391277E-01 
       102  4.512136878E-04 -1.649999952E-03  9.880065915E-04  1.879508241E-03  3.510928236E+01  5.942599823E+02  7.111390485E-01 
       103  5.803136392E-04 -1.649999997E-03  9.879823968E-04  1.879508804E-03  3.511131001E+01  5.942600000E+02  7.111395913E-01 
       104  1.223776813E-02 -1.650000009E-03  9.880956075E-04  2.129256619E-03  3.830669029E+01  5.942600008E+02  7.067110911E-01 
       105 -1.968786396E-03 -1.649999951E-03  9.883890366E-04  1.879501820E-03  3.514565314E+01  5.942599823E+02  7.111443124E-01 
       106 -1.652977683E-03 -1.649999996E-03  9.883474365E-04  1.879502434E-03  3.513454658E+01  5.942600000E+02  7.111429052E-01 
       107 -1.155706233E-03 -1.649999999E-03  9.882811823E-04  1.879503426E-03  3.512082207E+01  5.942600000E+02  7.111408916E-01 
       108 -7.328599352E-04 -1.649999953E-03  9.882105507E-04  1.879504526E-03  3.511331388E+01  5.942599823E+02  7.111397187E-01 
       109  1.231666688E-02 -1.649999993E-03  9.882706246E-04  6.523030602E-03  3.837304621E+01  5.942600058E+02  6.589706913E-01 
       110 -1.238224737E-02 -1.650000051E-03  9.884166253E-04  7.589040275E-03  3.838699413E+01  5.942600559E+02  0.000000000E+00 
       111 -1.231697450E-02 -1.649999999E-03  9.884940960E-04  6.596651033E-03  3.837489934E+01  5.942600056E+02  6.607392072E-01 
       112 -2.327584992E-03 -1.649999952E-03  9.884358288E-04  1.879501306E-03  3.516249912E+01  5.942599823E+02  7.111463492E-01 
       113  1.238241434E-02 -1.650000051E-03  9.884166253E-04  7.520894279E-03  3.838335678E+01  5.942600559E+02  0.000000000E+00 
       114 -1.223864467E-02 -1.650000051E-03  9.885870638E-04  2.140823779E-03  3.830623872E+01  5.942600185E+02  7.067484048E-01 
       115 -1.214464338E-02 -1.649999994E-03  9.886984689E-04  1.815752182E-03  3.820221927E+01  5.942600000E+02  7.132717783E-01 
       116 -4.517199587E-03 -1.649999963E-03  9.887236864E-04  1.879500422E-03  3.532278423E+01  5.942599867E+02  7.111673016E-01 
       117 -4.414670316E-03 -1.650000033E-03  9.887104562E-04  1.879500408E-03  3.531273324E+01  5.942600133E+02  7.111658357E-01 
       118 -3.651595001E-03 -1.650000048E-03  9.886098026E-04  1.879500293E-03  3.524690107E+01  5.942600177E+02  7.111567317E-01 
       119 -3.094823677E-03 -1.650000049E-03  9.885372614E-04  1.879500527E-03  3.520599031E+01  5.942600177E+02  7.111515775E-01 
       120 -2.793029229E-03 -1.649999951E-03  9.884973581E-04  1.879500698E-03  3.518701397E+01  5.942599823E+02  7.111492753E-01 
       121 -1.203183536E-02 -1.650000008E-03  9.888320552E-04  1.841454104E-03  3.807231881E+01  5.942599999E+02  7.136109873E-01 
       122 -5.373331867E-03 -1.650000002E-03  9.888373881E-04  1.879502282E-03  3.542350893E+01  5.942600000E+02  7.111834931E-01 
       123 -4.706021831E-03 -1.649999978E-03  9.887486688E-04  1.879500829E-03  3.534430649E+01  5.942599911E+02  7.111708131E-01 
       124 -1.189645587E-02 -1.650000052E-03  9.889921867E-04  1.858979867E-03  3.791964244E+01  5.942600176E+02  7.134292461E-01 
       125 -5.769750150E-03 -1.650000058E-03  9.888914969E-04  1.879503982E-03  3.547876024E+01  5.942600177E+02  7.111936243E-01 
       126 -7.038392819E-03 -1.649999978E-03  9.890637268E-04  1.879513849E-03  3.569272156E+01  5.942599911E+02  7.112406710E-01 
       127 -6.777981764E-03 -1.650000004E-03  9.890279205E-04  1.879511529E-03  3.564548653E+01  5.942600000E+02  7.112299409E-01 
       128 -6.208507374E-03 -1.649999986E-03  9.889500532E-04  1.879506349E-03  3.554489408E+01  5.942600000E+02  7.112064271E-01 
       129 -1.173398426E-02 -1.649999973E-03  9.891839625E-04  1.868445765E-03  3.775319483E+01  5.942599911E+02  7.131688725E-01 
       130 -7.317166953E-03 -1.650000004E-03  9.891033433E-04  1.879518671E-03  3.575378950E+01  5.942600000E+02  7.112583567E-01 
       131 -8.713682192E-03 -1.650000053E-03  9.893002256E-04  1.879560545E-03  3.611839859E+01  5.942600177E+02  7.113906199E-01 
       132 -8.332633425E-03 -1.649999946E-03  9.892454469E-04  1.879546334E-03  3.600931472E+01  5.942599823E+02  7.113477087E-01 
       133 -7.874710432E-03 -1.649999955E-03  9.891805000E-04  1.879529548E-03  3.588291784E+01  5.942599823E+02  7.112970475E-01 
       134 -1.153899587E-02 -1.649999945E-03  9.894136741E-04  1.873832292E-03  3.757613586E+01  5.942599822E+02  7.128873200E-01 
       135 -9.733691370E-03 -1.650000000E-03  9.894490791E-04  1.879572424E-03  3.650627566E+01  5.942600000E+02  7.116411688E-01 
       136 -9.556210586E-03 -1.650000046E-03  9.894235574E-04  1.879607560E-03  3.642209026E+01  5.942600177E+02  7.115660830E-01 
       137 -9.266405885E-03 -1.650000050E-03  9.893819229E-04  1.879590982E-03  3.631547409E+01  5.942600177E+02  7.115040080E-01 
       138 -1.041736222E-02 -1.649999955E-03  9.895527119E-04  1.879445781E-03  3.683724005E+01  5.942599823E+02  7.119317666E-01 
       139 -1.130497527E-02 -1.649999952E-03  9.896886455E-04  1.876856263E-03  3.738817283E+01  5.942599822E+02  7.126029592E-01 
       140 -1.104863784E-02 -1.650000007E-03  9.896471749E-04  1.877609785E-03  3.722638290E+01  5.942599999E+02  7.124063154E-01 
       141  1.110265300E-02 -1.649999997E-03  1.972140752E-03  1.864228656E-03  3.656299264E+01  5.942600000E+02  7.138152587E-01 
       142  1.129766783E-02 -1.649999997E-03  1.972047450E-03  1.862931262E-03  3.662071303E+01  5.942600000E+02  7.140831036E-01 
       143  1.038834619E-02 -1.649999990E-03  1.972439484E-03  1.868809262E-03  3.635501577E+01  5.942600000E+02  7.128712499E-01 
       144  9.996815845E-03 -1.649999998E-03  1.972603110E-03  1.869033543E-03  3.624360983E+01  5.942600000E+02  7.125619619E-01 
       145  9.485811853E-03 -1.649999993E-03  1.972800993E-03  1.869307360E-03  3.610209194E+01  5.942600000E+02  7.121707863E-01 
       146  8.598398070E-03 -1.649999998E-03  1.973137196E-03  1.869235712E-03  3.587852058E+01  5.942600000E+02  7.118049207E-01 
       147  8.805409659E-03 -1.650000022E-03  1.973060752E-03  1.869251439E-03  3.592911702E+01  5.942600088E+02  7.118882282E-01 
       148  1.153328860E-02 -1.649999970E-03  1.973080771E-03  1.856654873E-03  3.668162990E+01  5.942599911E+02  7.145527959E-01 
       149  8.091608969E-03 -1.650000003E-03  1.973322042E-03  1.869201445E-03  3.576935457E+01  5.942600000E+02  7.116873800E-01 
       150  7.572601876E-03 -1.650000025E-03  1.973515861E-03  1.869171368E-03  3.566474831E+01  5.942600088E+02  7.115836682E-01 
       151  7.730469083E-03 -1.650000002E-03  1.973458047E-03  1.869177585E-03  3.569333596E+01  5.942600000E+02  7.116056999E-01 
