nodenumber     x-coordinate     y-coordinate     z-coordinate turb-kinetic-energy         pressure      temperature velocity-magnitude 
         1 -1.238224696E-02 -1.650000007E-03  0.000000000E+00  3.509310378E-03  3.573709596E+01  5.942600134E+02  0.000000000E+00 
         2 -1.231646687E-02 -1.649999949E-03  0.000000000E+00  1.640082456E-03  3.568374206E+01  5.942599823E+02  6.613284424E-01 
         3 -1.223752875E-02 -1.650000008E-03  0.000000000E+00  1.640082505E-03  3.555034460E+01  5.942600000E+02  6.613284621E-01 
         4 -1.214279805E-02 -1.649999951E-03  0.000000000E+00  1.640082456E-03  3.537766983E+01  5.942599823E+02  6.613284424E-01 
         5 -1.202911553E-02 -1.649999951E-03  0.000000000E+00  1.640082456E-03  3.517753051E+01  5.942599823E+02  6.613284424E-01 
         6 -1.189268779E-02 -1.650000001E-03  0.000000000E+00  1.640082505E-03  3.495581356E+01  5.942600000E+02  6.613284621E-01 
         7 -1.172896070E-02 -1.650000028E-03  0.000000000E+00  1.640082530E-03  3.472222329E+01  5.942600089E+02  6.613284719E-01 
         8 -1.153246726E-02 -1.649999968E-03  0.000000000E+00  1.640082481E-03  3.447942845E+01  5.942599911E+02  6.613284522E-01 
         9 -1.129664480E-02 -1.649999999E-03  0.000000000E+00  1.640082505E-03  3.411513166E+01  5.942600000E+02  6.613284621E-01 
        10 -1.104180182E-02 -1.649999952E-03  0.000000000E+00  1.640082456E-03  3.396447968E+01  5.942599823E+02  6.613284424E-01 
        11 -1.040965475E-02 -1.650000037E-03  0.000000000E+00  1.640082554E-03  3.359941710E+01  5.942600177E+02  6.613284818E-01 
        12 -9.727797567E-03 -1.649999974E-03  0.000000000E+00  1.640082481E-03  3.323736679E+01  5.942599911E+02  6.613284522E-01 
        13 -9.549135039E-03 -1.650000016E-03  0.000000000E+00  1.640082530E-03  3.314371729E+01  5.942600089E+02  6.613284719E-01 
        14 -9.257402967E-03 -1.649999996E-03  0.000000000E+00  1.640082505E-03  3.303414527E+01  5.942600000E+02  6.613284621E-01 
        15 -8.707201624E-03 -1.650000004E-03  0.000000000E+00  1.640082505E-03  3.283275292E+01  5.942600000E+02  6.613284621E-01 
        16 -8.327874969E-03 -1.650000002E-03  0.000000000E+00  1.640082505E-03  3.272350848E+01  5.942600000E+02  6.613284621E-01 
        17 -7.868819436E-03 -1.650000009E-03  0.000000000E+00  1.640082505E-03  3.259524951E+01  5.942600000E+02  6.613284621E-01 
        18 -7.309914944E-03 -1.650000005E-03  0.000000000E+00  1.640082505E-03  3.246828225E+01  5.942600000E+02  6.613284621E-01 
        19 -7.033056079E-03 -1.649999952E-03  0.000000000E+00  1.640082456E-03  3.240908041E+01  5.942599823E+02  6.613284424E-01 
        20 -6.774404682E-03 -1.650000049E-03  0.000000000E+00  1.640082554E-03  3.236435430E+01  5.942600177E+02  6.613284818E-01 
        21 -6.203718579E-03 -1.649999993E-03  0.000000000E+00  1.640082505E-03  3.226919136E+01  5.942600000E+02  6.613284621E-01 
        22 -5.764059055E-03 -1.650000057E-03  0.000000000E+00  1.640082554E-03  3.220530184E+01  5.942600177E+02  6.613284818E-01 
        23 -5.369046210E-03 -1.650000008E-03  0.000000000E+00  1.640082505E-03  3.215275491E+01  5.942600000E+02  6.613284621E-01 
        24 -4.703991919E-03 -1.649999998E-03  0.000000000E+00  1.640082505E-03  3.207749865E+01  5.942600000E+02  6.613284621E-01 
        25 -4.513416810E-03 -1.649999963E-03  0.000000000E+00  1.640082469E-03  3.205672141E+01  5.942599867E+02  6.613284473E-01 
        26 -4.409949101E-03 -1.650000002E-03  0.000000000E+00  1.640082505E-03  3.204709976E+01  5.942600000E+02  6.613284621E-01 
        27 -3.648226494E-03 -1.649999989E-03  0.000000000E+00  1.640082505E-03  3.198450911E+01  5.942600000E+02  6.613284621E-01 
        28 -3.090814824E-03 -1.649999990E-03  0.000000000E+00  1.640082505E-03  3.194495745E+01  5.942600000E+02  6.613284621E-01 
        29 -2.790049428E-03 -1.649999975E-03  0.000000000E+00  1.640082481E-03  3.192681616E+01  5.942599911E+02  6.613284522E-01 
        30 -2.326109559E-03 -1.650000046E-03  0.000000000E+00  1.640082554E-03  3.190371725E+01  5.942600177E+02  6.613284818E-01 
        31 -1.966101120E-03 -1.650000005E-03  0.000000000E+00  1.640082505E-03  3.188766929E+01  5.942600000E+02  6.613284621E-01 
        32 -1.649288649E-03 -1.650000004E-03  0.000000000E+00  1.640082505E-03  3.187724959E+01  5.942600000E+02  6.613284621E-01 
        33 -1.153324779E-03 -1.650000049E-03  0.000000000E+00  1.640082554E-03  3.186462673E+01  5.942600177E+02  6.613284818E-01 
        34 -7.314993435E-04 -1.649999992E-03  0.000000000E+00  1.640082505E-03  3.185734523E+01  5.942600000E+02  6.613284621E-01 
        35 -3.521276869E-04 -1.650000043E-03  0.000000000E+00  1.640082554E-03  3.185305586E+01  5.942600177E+02  6.613284818E-01 
        36  2.062356178E-04 -1.650000004E-03  0.000000000E+00  1.640082505E-03  3.185205649E+01  5.942600000E+02  6.613284621E-01 
        37  4.531226353E-04 -1.649999970E-03  0.000000000E+00  1.640082481E-03  3.185269934E+01  5.942599911E+02  6.613284522E-01 
        38  5.816147412E-04 -1.650000031E-03  0.000000000E+00  1.640082530E-03  3.185444688E+01  5.942600089E+02  6.613284719E-01 
        39  1.287381078E-03 -1.649999940E-03  0.000000000E+00  1.640082456E-03  3.186891000E+01  5.942599823E+02  6.613284424E-01 
        40  1.817906072E-03 -1.650000045E-03  0.000000000E+00  1.640082554E-03  3.188438084E+01  5.942600177E+02  6.613284818E-01 
        41  2.171618469E-03 -1.649999958E-03  0.000000000E+00  1.640082456E-03  3.189800707E+01  5.942599823E+02  6.613284424E-01 
        42  2.917015337E-03 -1.650000026E-03  0.000000000E+00  1.640082530E-03  3.193470705E+01  5.942600089E+02  6.613284719E-01 
        43  3.060138752E-03 -1.649999982E-03  0.000000000E+00  1.640082487E-03  3.194225366E+01  5.942599934E+02  6.613284547E-01 
        44  3.122627803E-03 -1.650000012E-03  0.000000000E+00  1.640082518E-03  3.194623685E+01  5.942600044E+02  6.613284670E-01 
        45  3.948750735E-03 -1.649999946E-03  0.000000000E+00  1.640082456E-03  3.200709487E+01  5.942599823E+02  6.613284424E-01 
        46  4.233552192E-03 -1.650000005E-03  0.000000000E+00  1.640082505E-03  3.202974677E+01  5.942600000E+02  6.613284621E-01 
        47  4.833507872E-03 -1.649999945E-03  0.000000000E+00  1.640082456E-03  3.208821719E+01  5.942599823E+02  6.613284424E-01 
        48  5.160210487E-03 -1.649999946E-03  0.000000000E+00  1.640082456E-03  3.212430619E+01  5.942599823E+02  6.613284424E-01 
        49  5.783248106E-03 -1.650000052E-03  0.000000000E+00  1.640082554E-03  3.220590236E+01  5.942600177E+02  6.613284818E-01 
        50  6.035984549E-03 -1.649999976E-03  0.000000000E+00  1.640082481E-03  3.224091141E+01  5.942599911E+02  6.613284522E-01 
        51  6.237400109E-03 -1.650000022E-03  0.000000000E+00  1.640082530E-03  3.227286351E+01  5.942600089E+02  6.613284719E-01 
        52  6.881112835E-03 -1.650000056E-03  0.000000000E+00  1.640082554E-03  3.237982765E+01  5.942600177E+02  6.613284818E-01 
        53  7.573470319E-03 -1.649999997E-03  0.000000000E+00  1.640082505E-03  3.252158809E+01  5.942600000E+02  6.613284621E-01 
        54  7.730792309E-03 -1.650000003E-03  0.000000000E+00  1.640082505E-03  3.255493245E+01  5.942600000E+02  6.613284621E-01 
        55  8.090815089E-03 -1.650000001E-03  0.000000000E+00  1.640082505E-03  3.265190261E+01  5.942600000E+02  6.613284621E-01 
        56  8.598449542E-03 -1.650000003E-03  0.000000000E+00  1.640082505E-03  3.279195036E+01  5.942600000E+02  6.613284621E-01 
        57  8.805739513E-03 -1.650000003E-03  0.000000000E+00  1.640082505E-03  3.286662977E+01  5.942600000E+02  6.613284621E-01 
        58  9.485623847E-03 -1.649999997E-03  0.000000000E+00  1.640082505E-03  3.312105435E+01  5.942600000E+02  6.613284621E-01 
        59  9.996717122E-03 -1.650000053E-03  0.000000000E+00  1.640082554E-03  3.338605750E+01  5.942600177E+02  6.613284818E-01 
        60  1.038796781E-02 -1.650000000E-03  0.000000000E+00  1.640082505E-03  3.359794088E+01  5.942600000E+02  6.613284621E-01 
        61  1.110225324E-02 -1.650000050E-03  0.000000000E+00  1.640082554E-03  3.401698565E+01  5.942600177E+02  6.613284818E-01 
        62  1.129715473E-02 -1.650000051E-03  0.000000000E+00  1.640082554E-03  3.413373664E+01  5.942600177E+02  6.613284818E-01 
        63  1.153289457E-02 -1.649999949E-03  0.000000000E+00  1.640082456E-03  3.450710071E+01  5.942599823E+02  6.613284424E-01 
        64  1.172932302E-02 -1.649999996E-03  0.000000000E+00  1.640082505E-03  3.475764361E+01  5.942600000E+02  6.613284621E-01 
        65  1.189299876E-02 -1.650000052E-03  0.000000000E+00  1.640082554E-03  3.499971342E+01  5.942600177E+02  6.613284818E-01 
        66  1.202938442E-02 -1.649999949E-03  0.000000000E+00  1.640082456E-03  3.523071721E+01  5.942599823E+02  6.613284424E-01 
        67  1.214303390E-02 -1.650000044E-03  0.000000000E+00  1.640082554E-03  3.543998018E+01  5.942600177E+02  6.613284818E-01 
        68  1.223773642E-02 -1.650000012E-03  0.000000000E+00  1.640082505E-03  3.562085813E+01  5.942600000E+02  6.613284621E-01 
        69  1.231665286E-02 -1.650000046E-03  0.000000000E+00  1.640082554E-03  3.576047001E+01  5.942600177E+02  6.613284818E-01 
        70  1.238241385E-02 -1.649999998E-03  0.000000000E+00  3.486022965E-03  3.581601175E+01  5.942600134E+02  0.000000000E+00 
        71  1.110245300E-02 -1.649999996E-03  9.860657205E-04  1.624333404E-03  3.376526334E+01  5.942600000E+02  6.627016692E-01 
        72  1.129741118E-02 -1.649999994E-03  9.860237298E-04  1.623891068E-03  3.387514074E+01  5.942599999E+02  6.628541514E-01 
        73  1.038815708E-02 -1.649999987E-03  9.861987235E-04  1.625892554E-03  3.337469523E+01  5.942600000E+02  6.621663180E-01 
        74  8.805574705E-03 -1.650000021E-03  9.864727040E-04  1.625916376E-03  3.277450868E+01  5.942600088E+02  6.616708331E-01 
        75  9.485717905E-03 -1.650000014E-03  9.863583903E-04  1.625960502E-03  3.299411063E+01  5.942600000E+02  6.618019973E-01 
        76  9.996766092E-03 -1.649999943E-03  9.862710097E-04  1.625923328E-03  3.320703824E+01  5.942599823E+02  6.620052674E-01 
        77  7.730630904E-03 -1.650000039E-03  9.866502961E-04  1.625872478E-03  3.249615022E+01  5.942600133E+02  6.615454845E-01 
        78  8.091212126E-03 -1.649999999E-03  9.865892570E-04  1.625885216E-03  3.258383510E+01  5.942600000E+02  6.615809217E-01 
        79  8.598423723E-03 -1.649999983E-03  9.865066297E-04  1.625903597E-03  3.271008301E+01  5.942599911E+02  6.616320267E-01 
        80  1.153309208E-02 -1.650000032E-03  9.865404178E-04  1.621426204E-03  3.404040837E+01  5.942600088E+02  6.631484887E-01 
        81  7.573036225E-03 -1.650000030E-03  9.866765862E-04  1.625869293E-03  3.246505266E+01  5.942600088E+02  6.615362788E-01 
        82  5.783215100E-03 -1.650000004E-03  9.869826635E-04  1.625842807E-03  3.216907428E+01  5.942600000E+02  6.614598934E-01 
        83  6.035506259E-03 -1.649999949E-03  9.869375075E-04  1.625845072E-03  3.220092028E+01  5.942599823E+02  6.614658162E-01 
        84  6.236595952E-03 -1.650000002E-03  9.869024133E-04  1.625847669E-03  3.223150913E+01  5.942600000E+02  6.614730322E-01 
        85  6.880806203E-03 -1.649999944E-03  9.867931445E-04  1.625855683E-03  3.233285144E+01  5.942599823E+02  6.614963571E-01 
        86  1.172947215E-02 -1.650000029E-03  9.869723181E-04  1.616996682E-03  3.419653948E+01  5.942600088E+02  6.634423837E-01 
        87  4.832561986E-03 -1.649999941E-03  9.871570102E-04  1.625835244E-03  3.205845880E+01  5.942599823E+02  6.614402936E-01 
        88  5.159606270E-03 -1.650000004E-03  9.870976822E-04  1.625837477E-03  3.209353990E+01  5.942600000E+02  6.614460530E-01 
        89  3.947734035E-03 -1.649999955E-03  9.873277149E-04  1.625829841E-03  3.197842838E+01  5.942599823E+02  6.614279496E-01 
        90  4.232942892E-03 -1.649999946E-03  9.872707921E-04  1.625831442E-03  3.200097920E+01  5.942599823E+02  6.614310801E-01 
        91  1.189310817E-02 -1.649999954E-03  9.873330752E-04  1.609200472E-03  3.434377897E+01  5.942599822E+02  6.637158046E-01 
        92  2.914795121E-03 -1.649999999E-03  9.875323253E-04  1.625824661E-03  3.190952613E+01  5.942600000E+02  6.614187230E-01 
        93  3.058937451E-03 -1.650000039E-03  9.875036176E-04  1.625825337E-03  3.191686936E+01  5.942600133E+02  6.614196084E-01 
        94  3.121859929E-03 -1.649999985E-03  9.874906111E-04  1.625825595E-03  3.192064470E+01  5.942599956E+02  6.614200628E-01 
        95  1.285714191E-03 -1.649999950E-03  9.878538017E-04  1.625817913E-03  3.184577603E+01  5.942599823E+02  6.614108781E-01 
        96  1.816924899E-03 -1.650000049E-03  9.877480907E-04  1.625820033E-03  3.186089389E+01  5.942600177E+02  6.614129251E-01 
        97  2.170191834E-03 -1.650000044E-03  9.876810309E-04  1.625821421E-03  3.187415660E+01  5.942600177E+02  6.614145252E-01 
        98  1.202946298E-02 -1.649999953E-03  9.876343321E-04  1.594792553E-03  3.447902370E+01  5.942599822E+02  6.639110879E-01 
        99  1.214308635E-02 -1.649999988E-03  9.878858045E-04  1.573584385E-03  3.459398513E+01  5.942600000E+02  6.635899485E-01 
       100 -3.542577826E-04 -1.650000007E-03  9.881497301E-04  1.625812842E-03  3.183032052E+01  5.942600000E+02  6.614087615E-01 
       101  2.031021205E-04 -1.649999952E-03  9.880507533E-04  1.625814362E-03  3.182958378E+01  5.942599823E+02  6.614088215E-01 
       102  4.512136878E-04 -1.649999952E-03  9.880065915E-04  1.625815090E-03  3.183021038E+01  5.942599823E+02  6.614087295E-01 
       103  5.803136392E-04 -1.649999997E-03  9.879823968E-04  1.625815580E-03  3.183197190E+01  5.942600000E+02  6.614092685E-01 
       104  1.223776813E-02 -1.650000009E-03  9.880956075E-04  1.862567353E-03  3.468512707E+01  5.942600007E+02  6.571166869E-01 
       105 -1.968786396E-03 -1.649999951E-03  9.883890366E-04  1.625809635E-03  3.186460876E+01  5.942599823E+02  6.614137842E-01 
       106 -1.652977683E-03 -1.649999996E-03  9.883474365E-04  1.625810141E-03  3.185435797E+01  5.942600000E+02  6.614124471E-01 
       107 -1.155706233E-03 -1.649999999E-03  9.882811823E-04  1.625810966E-03  3.184162162E+01  5.942600000E+02  6.614105448E-01 
       108 -7.328599352E-04 -1.649999953E-03  9.882105507E-04  1.625811897E-03  3.183456599E+01  5.942599823E+02  6.614093913E-01 
       109  1.231666688E-02 -1.649999993E-03  9.882706246E-04  5.766095540E-03  3.474376196E+01  5.942600052E+02  6.117915722E-01 
       110 -1.238224737E-02 -1.650000051E-03  9.884166253E-04  6.712491132E-03  3.475237312E+01  5.942600508E+02  0.000000000E+00 
       111 -1.231697450E-02 -1.649999999E-03  9.884940960E-04  5.831841019E-03  3.474167470E+01  5.942600050E+02  6.134470782E-01 
       112 -2.327584992E-03 -1.649999952E-03  9.884358288E-04  1.625809228E-03  3.188008383E+01  5.942599823E+02  6.614157229E-01 
       113  1.238241434E-02 -1.650000051E-03  9.884166253E-04  6.651670960E-03  3.475287866E+01  5.942600508E+02  0.000000000E+00 
       114 -1.223864467E-02 -1.650000051E-03  9.885870638E-04  1.873412411E-03  3.468101629E+01  5.942600184E+02  6.571589127E-01 
       115 -1.214464338E-02 -1.649999994E-03  9.886984689E-04  1.570554751E-03  3.458922211E+01  5.942600000E+02  6.634305916E-01 
       116 -4.517199587E-03 -1.649999963E-03  9.887236864E-04  1.625808837E-03  3.202649813E+01  5.942599867E+02  6.614356258E-01 
       117 -4.414670316E-03 -1.650000033E-03  9.887104562E-04  1.625808799E-03  3.201734700E+01  5.942600133E+02  6.614342375E-01 
       118 -3.651595001E-03 -1.650000048E-03  9.886098026E-04  1.625808542E-03  3.195731035E+01  5.942600177E+02  6.614255972E-01 
       119 -3.094823677E-03 -1.650000049E-03  9.885372614E-04  1.625808649E-03  3.191994018E+01  5.942600177E+02  6.614206987E-01 
       120 -2.793029229E-03 -1.649999951E-03  9.884973581E-04  1.625808755E-03  3.190257058E+01  5.942599823E+02  6.614185064E-01 
       121 -1.203183536E-02 -1.650000008E-03  9.888320552E-04  1.592351276E-03  3.447446212E+01  5.942600000E+02  6.637607801E-01 
       122 -5.373331867E-03 -1.650000002E-03  9.888373881E-04  1.625810718E-03  3.211806309E+01  5.942600000E+02  6.614509206E-01 
       123 -4.706021831E-03 -1.649999978E-03  9.887486688E-04  1.625809248E-03  3.204606503E+01  5.942599911E+02  6.614389414E-01 
       124 -1.189645587E-02 -1.650000052E-03  9.889921867E-04  1.607828556E-03  3.433993471E+01  5.942600177E+02  6.635930896E-01 
       125 -5.769750150E-03 -1.650000058E-03  9.888914969E-04  1.625812351E-03  3.216819303E+01  5.942600177E+02  6.614604508E-01 
       126 -7.038392819E-03 -1.649999978E-03  9.890637268E-04  1.625821572E-03  3.236182879E+01  5.942599911E+02  6.615046033E-01 
       127 -6.777981764E-03 -1.650000004E-03  9.890279205E-04  1.625819415E-03  3.231910617E+01  5.942600000E+02  6.614945413E-01 
       128 -6.208507374E-03 -1.649999986E-03  9.889500532E-04  1.625814607E-03  3.222813906E+01  5.942600000E+02  6.614724924E-01 
       129 -1.173398426E-02 -1.649999973E-03  9.891839625E-04  1.616154226E-03  3.419319105E+01  5.942599911E+02  6.633451474E-01 
       130 -7.317166953E-03 -1.650000004E-03  9.891033433E-04  1.625825961E-03  3.241688444E+01  5.942600000E+02  6.615211603E-01 
       131 -8.713682192E-03 -1.650000053E-03  9.893002256E-04  1.625863743E-03  3.274459871E+01  5.942600177E+02  6.616452204E-01 
       132 -8.332633425E-03 -1.649999946E-03  9.892454469E-04  1.625850961E-03  3.264667914E+01  5.942599823E+02  6.616049627E-01 
       133 -7.874710432E-03 -1.649999955E-03  9.891805000E-04  1.625835853E-03  3.253323074E+01  5.942599823E+02  6.615574128E-01 
       134 -1.153899587E-02 -1.649999945E-03  9.894136741E-04  1.620875239E-03  3.403713504E+01  5.942599822E+02  6.630753449E-01 
       135 -9.733691370E-03 -1.650000000E-03  9.894490791E-04  1.625876870E-03  3.309057909E+01  5.942600000E+02  6.618824178E-01 
       136 -9.556210586E-03 -1.650000046E-03  9.894235574E-04  1.625906445E-03  3.301581918E+01  5.942600177E+02  6.618109183E-01 
       137 -9.266405885E-03 -1.650000050E-03  9.893819229E-04  1.625891361E-03  3.292060718E+01  5.942600177E+02  6.617522796E-01 
       138 -1.041736222E-02 -1.649999955E-03  9.895527119E-04  1.625770494E-03  3.338446670E+01  5.942599823E+02  6.621591414E-01 
       139 -1.130497527E-02 -1.649999952E-03  9.896886455E-04  1.623518920E-03  3.387141042E+01  5.942599822E+02  6.628023738E-01 
       140 -1.104863784E-02 -1.650000007E-03  9.896471749E-04  1.624174085E-03  3.372843108E+01  5.942600000E+02  6.626138882E-01 
       141  1.110265300E-02 -1.649999997E-03  1.972140752E-03  1.612579702E-03  3.314371651E+01  5.942600000E+02  6.639467294E-01 
       142  1.129766783E-02 -1.649999997E-03  1.972047450E-03  1.611447950E-03  3.319608925E+01  5.942600000E+02  6.642004351E-01 
       143  1.038834619E-02 -1.649999990E-03  1.972439484E-03  1.616574791E-03  3.295514954E+01  5.942600000E+02  6.630524092E-01 
       144  9.996815845E-03 -1.649999998E-03  1.972603110E-03  1.616768219E-03  3.285411171E+01  5.942600000E+02  6.627602839E-01 
       145  9.485811853E-03 -1.649999993E-03  1.972800993E-03  1.617004260E-03  3.272581729E+01  5.942600000E+02  6.623907092E-01 
       146  8.598398070E-03 -1.649999998E-03  1.973137196E-03  1.616938500E-03  3.252333725E+01  5.942600000E+02  6.620453601E-01 
       147  8.805409659E-03 -1.650000022E-03  1.973060752E-03  1.616952946E-03  3.256915200E+01  5.942600088E+02  6.621240077E-01 
       148  1.153328860E-02 -1.649999970E-03  1.973080771E-03  1.605959999E-03  3.325131592E+01  5.942599911E+02  6.646466380E-01 
       149  8.091608969E-03 -1.650000003E-03  1.973322042E-03  1.616907409E-03  3.242456773E+01  5.942600000E+02  6.619341910E-01 
       150  7.572601876E-03 -1.650000025E-03  1.973515861E-03  1.616880092E-03  3.232993498E+01  5.942600088E+02  6.618360200E-01 
       151  7.730469083E-03 -1.650000002E-03  1.973458047E-03  1.616885764E-03  3.235578272E+01  5.942600000E+02  6.618569350E-01 
